1.278961
0.982562
0.766588
0.595700
0.528550
0.129366
-0.093736
0.269855
0.171168
-0.066502
-0.030284
-0.028482
0.061884
-0.271207
0.053908
0.026195
0.030710
-0.078348
-0.190508
-0.067430
0.016975
0.157562
-0.167984
-0.154020
-0.124747
-0.237102
-0.043196
-0.052197
0.027988
0.003865
-0.329025
0.085613
0.266254
-0.081180
0.044249
-0.009609
0.021493
-0.193291
-0.078862
-0.007822
0.027503
-0.072571
0.124674
-0.066818
0.273376
0.050285
0.039489
-0.104336
0.022074
-0.065856
0.289515
-0.082689
0.112672
0.016476
0.054177
0.090353
-0.023903
0.290307
0.009292
0.109873
-0.392369
-0.084878
0.224549
0.077915
0.056899
-0.186568
-0.241785
0.065150
-0.195973
0.100616
0.211433
0.033105
-0.206982
0.048212
0.091852
0.056312
0.197687
0.149475
0.193932
-0.231794
0.143257
-0.148325
0.068909
0.307832
0.299157
0.121279
0.379884
0.175275
0.249995
0.184697
0.234301
0.297873
0.354671
0.386321
0.155065
0.549335
0.270165
-0.023336
-0.068826
0.120205
-0.068645
-0.182555
0.008408
-0.095444
0.126593
-0.092500
0.205449
0.318142
-0.126342
0.201307
0.011148
-0.138566
0.047848
-0.324409
0.042657
0.027198
0.140479
0.121766
0.087051
0.042600
-0.207048
0.145718
0.009698
0.089716
0.011945
0.003906
-0.076871
0.243973
-0.207338
0.147144
0.251522
-0.067831
-0.204804
-0.045423
0.234164
-0.031586
0.077515
0.238125
-0.006714
0.059043
-0.020397
0.344877
-0.165286
0.109068
-0.030209
0.076286
0.145783
0.047074
-0.328499
-0.081523
0.157073
-0.030494
-0.174549
0.220222
-0.051842
-0.141060
0.102003
-0.225167
0.086575
0.047250
0.130248
0.006236
0.149878
-0.130815
-0.024561
-0.012817
0.215745
-0.085937
0.114751
0.284896
-0.214100
0.157298
-0.365514
0.010477
-0.114953
0.327860
0.043022
0.159547
-0.112559
0.095624
0.002679
0.095046
0.027348
0.059541
0.130895
-0.012798
-0.074067
0.000965
0.102919
0.091642
-0.005778
-0.192496
-0.087182
0.046650
0.025998
0.114291
-0.184018
-0.120831
0.150339
0.322240
0.226603
-0.279542
-0.143703
-0.050699
0.017409
-0.218151
0.014767
-0.011508
-0.066070
0.048658
0.051926
0.035380
0.240035
-0.360266
0.132633
0.090068
-0.166224
-0.001800
0.028445
0.163779
-0.078036
0.087265
-0.001479
0.041583
-0.059269
-0.074387
-0.066820
-0.032082
-0.208195
0.048770
0.068524
-0.217175
0.012938
0.174285
0.534839
0.633130
0.885991
1.190183
1.338551
1.090301
0.868772
0.696579
0.538339
0.310700
0.099595
0.074156
-0.122536
0.085094
0.126383
-0.025543
-0.305973
0.413795
-0.286910
-0.141616
0.064982
-0.014194
-0.023251
0.102025
0.191239
-0.068202
-0.148613
0.183220
0.122195
-0.005327
-0.033982
-0.011721
-0.124643
0.180256
0.206827
0.057801
-0.020386
-0.006692
-0.059036
0.034415
0.139913
-0.010205
-0.094006
-0.157052
-0.142967
-0.407413
-0.247959
-0.028248
0.046464
-0.037914
0.043881
-0.041729
0.049096
-0.034834
0.086521
0.002013
0.219388
-0.197800
-0.094703
0.017569
-0.223368
0.099370
0.237309
-0.238296
-0.077227
0.086747
0.105278
-0.012852
-0.042646
0.330814
-0.031203
-0.084014
0.248537
-0.030561
0.102299
-0.002853
0.153044
-0.090161
-0.115931
-0.243177
0.142415
0.160229
0.005671
-0.283299
-0.019422
0.245759
0.156868
0.234760
0.004920
0.084923
-0.040503
0.168739
0.291837
-0.008196
0.598821
0.553997
0.217993
0.102487
0.362179
-0.038472
0.053612
0.226874
0.333681
0.088797
0.407312
-0.047375
0.179667
-0.147043
0.247515
0.016692
0.032659
0.017308
-0.200824
-0.328155
0.002619
-0.302453
0.049341
0.200666
0.044744
0.042047
0.179214
0.108236
0.161496
-0.146190
-0.199269
0.417880
-0.078955
-0.148054
-0.036552
-0.200885
0.124022
-0.044115
0.071399
0.173475
-0.265399
0.010440
-0.089744
0.064567
0.131387
0.219288
0.110379
0.135835
0.151082
-0.120623
0.136933
0.172753
0.221437
0.134767
-0.031196
-0.076324
-0.046249
-0.154905
-0.259275
-0.094904
0.076561
-0.191303
0.094913
-0.007849
-0.008517
-0.136444
-0.086307
0.134825
-0.022268
0.056050
0.055385
0.217218
0.161761
0.011945
0.072018
-0.063385
-0.043867
0.157069
-0.143754
0.141662
0.007429
-0.004333
-0.088815
-0.129592
0.122533
0.188700
-0.084344
-0.158597
-0.099029
0.251395
-0.181134
0.194679
0.094585
-0.491494
0.029599
-0.146939
0.224133
0.070045
-0.093682
-0.054138
0.147604
0.220202
0.394521
0.989185
1.028249
1.010603
1.352447
0.844743
0.757220
0.638615
0.030437
-0.067529
0.228298
-0.122711
0.210932
-0.218059
-0.038823
-0.121989
-0.079264
0.104130
-0.200600
0.024719
0.316511
0.096946
0.158478
0.032106
0.082107
-0.152044
0.065148
0.034975
0.083857
-0.008732
-0.268053
0.045213
0.335865
-0.388969
-0.117433
0.129259
0.133840
-0.069279
0.089980
-0.183832
0.078559
-0.049714
0.184469
0.201485
0.136866
-0.161912
0.176042
-0.199031
0.173069
-0.010025
-0.019942
-0.005633
0.129124
0.057686
0.283657
-0.204582
0.156674
0.292950
-0.185319
-0.176141
-0.028880
0.066888
0.102588
-0.099763
-0.160271
0.025797
0.024178
-0.059895
0.118870
-0.092071
-0.022132
-0.136615
-0.143051
0.083415
-0.187369
-0.139133
-0.028822
0.019079
-0.156383
0.441352
0.212589
-0.154226
0.235184
0.148598
0.209148
0.127293
0.177607
0.490397
0.115666
0.298857
0.307495
0.095451
0.226639
0.473459
0.270501
0.229350
0.299197
0.208457
0.356809
0.200019
0.113489
0.366568
-0.032807
-0.259528
0.051938
0.008088
0.258545
-0.214905
-0.263174
-0.321278
-0.091875
-0.006129
-0.038692
0.222317
-0.032371
0.207590
-0.051426
0.096647
0.147877
-0.241598
0.184465
0.077516
-0.038756
-0.165356
0.363425
-0.055287
0.181332
0.137358
0.117105
0.119744
0.167157
-0.043164
-0.159517
-0.088080
-0.089747
-0.285834
-0.016080
-0.167739
-0.013308
0.133124
-0.057994
0.058317
-0.260421
-0.055699
0.204555
0.034022
0.079945
0.271386
-0.000067
-0.195840
-0.078956
-0.009557
-0.085046
0.164310
-0.120253
0.015786
-0.178217
0.020813
0.024143
-0.189018
0.034300
0.034832
-0.264602
0.119597
-0.101198
0.021224
-0.231652
-0.049458
0.035765
0.031194
-0.118615
0.118443
-0.026645
-0.197318
-0.140819
-0.144773
0.040249
0.008815
-0.066950
-0.119079
-0.114497
0.035183
-0.076453
-0.140165
-0.129396
0.120197
-0.000108
0.151310
0.117071
0.194842
0.155089
0.114355
0.043294
-0.094357
-0.193553
0.181655
-0.107401
0.051491
-0.065878
0.068319
-0.124423
-0.116012
0.007823
-0.019205
0.019248
0.074585
0.049914
-0.098898
0.031755
0.072659
-0.108207
0.082268
-0.145736
-0.232261
-0.093977
-0.078894
-0.093137
-0.103014
0.187630
-0.158514
-0.240874
0.137358
-0.037235
0.122159
0.043709
-0.017694
-0.422888
-0.214795
-0.156367
-0.108770
-0.062542
-0.006727
-0.096516
0.187053
0.035028
-0.172669
0.117202
-0.496855
-0.120888
-0.000324
0.073682
-0.051519
0.283578
-0.048075
0.157668
-0.045211
0.120717
-0.025631
0.297476
0.061560
-0.082221
-0.015866
0.255251
0.268929
-0.225417
-0.029516
-0.199121
0.262370
0.179938
0.232661
-0.230201
0.239839
0.226393
-0.107402
0.097594
0.082539
0.181548
0.100824
-0.000615
0.057314
0.126017
0.259363
-0.211959
0.014234
-0.282226
-0.146222
-0.003780
0.364607
0.805666
0.582457
0.940841
1.266850
1.266447
0.968144
0.941114
0.560918
0.243595
0.247733
0.060009
0.084864
0.043009
-0.129647
-0.058177
0.153057
-0.204111
-0.070441
0.050964
0.035830
-0.103011
-0.157608
0.207876
0.007900
-0.263791
0.139578
0.178270
0.114035
-0.067700
0.105449
0.075215
0.196439
-0.063631
-0.136071
0.218973
0.298206
-0.025448
0.025862
-0.075161
0.204938
0.051168
0.064245
-0.052244
-0.389165
-0.091440
-0.120242
-0.125075
-0.013523
-0.015277
0.101922
0.078457
0.151108
0.190636
0.002202
-0.067913
-0.136981
-0.007510
0.408973
0.124155
-0.109170
0.083990
0.060316
-0.124655
0.150700
-0.079491
0.046740
0.078989
-0.017465
0.080507
0.087087
-0.101407
0.142682
0.034649
0.048568
0.287032
-0.104287
-0.097771
-0.116560
0.072779
-0.060939
0.194627
0.214612
0.104238
-0.113338
0.242884
0.016192
0.187627
0.066553
0.461034
0.420368
0.415196
0.009279
0.121770
0.460419
0.386966
0.291368
0.092758
0.022658
0.258173
0.164619
0.099579
0.089683
0.139525
0.178024
0.151404
0.261679
-0.161825
0.250856
0.011395
0.001886
0.122517
0.178742
-0.003741
-0.139925
-0.315024
-0.120644
-0.063905
0.056491
0.055172
0.188624
0.102739
0.231858
0.101923
-0.066151
-0.033106
-0.192307
-0.191584
-0.027359
-0.044256
0.050414
0.166408
0.114100
0.365599
-0.197305
0.244441
-0.102779
0.057190
-0.156023
-0.169966
-0.018302
-0.121183
0.099684
0.066675
0.103040
0.170786
0.131473
-0.190659
-0.131953
0.165225
-0.017795
0.115722
0.091512
0.197265
0.045035
-0.060783
0.059266
-0.187396
0.012540
0.085023
-0.033048
-0.180718
-0.058637
-0.126164
-0.058808
-0.107224
-0.066297
0.225139
0.326888
-0.347381
-0.147286
-0.182883
0.071615
-0.091204
-0.056924
0.099118
-0.207721
0.084176
-0.120350
0.019020
-0.174889
-0.125715
0.127738
-0.073595
0.225469
0.039658
0.143986
0.516505
0.464051
1.268504
1.017824
1.125058
0.910749
0.677454
0.180384
0.311519
0.190245
0.049884
-0.120962
-0.249741
0.103960
-0.094808
-0.050075
-0.031024
0.017550
-0.288806
0.159955
0.068663
-0.064798
0.162837
-0.098164
-0.098905
-0.091024
-0.030684
0.039051
0.131179
0.051141
-0.058331
0.077855
-0.172857
-0.018921
0.033674
-0.016271
0.267983
0.268319
-0.058652
0.148256
0.008773
-0.075580
-0.242732
0.163685
-0.196907
-0.063826
-0.003796
0.122487
-0.019827
-0.038973
-0.015869
-0.260057
-0.065683
0.115462
0.154772
0.100315
-0.001962
-0.011861
-0.193436
0.067821
0.111321
0.273359
0.110792
-0.150809
0.094512
-0.115126
-0.328574
-0.371647
0.119136
0.176749
-0.210103
-0.105476
-0.044058
-0.092412
0.092084
0.242899
0.102318
0.043124
0.047269
0.062875
-0.128863
-0.221993
0.343479
-0.072375
0.314970
0.127221
0.380779
0.310554
0.278982
0.421291
0.389135
0.302214
0.167570
0.455930
0.481030
0.680286
-0.064269
0.379761
0.021804
0.381390
-0.153199
0.190245
0.276531
-0.018322
-0.032758
0.154196
0.014532
-0.098653
-0.060174
-0.125721
0.250301
0.090276
-0.091911
0.207931
0.216775
0.065484
0.263679
-0.029841
0.028724
-0.074655
0.049413
-0.043806
0.040755
0.151539
-0.046011
0.012148
-0.170504
-0.015651
0.242758
0.201214
0.158275
0.003950
0.209812
0.197183
-0.117610
-0.056718
-0.416006
-0.003374
-0.119578
0.109803
0.012488
-0.198006
0.141134
-0.245588
-0.110532
-0.032099
-0.112556
0.013606
0.080595
0.251672
0.157726
-0.139276
0.010050
0.444472
0.076307
-0.283220
0.115546
-0.032095
-0.176909
-0.042096
0.096546
-0.047309
0.062408
-0.400804
0.138273
0.104952
-0.172261
-0.157176
-0.188534
-0.384433
0.061150
0.014789
-0.234680
0.055630
-0.006374
0.118908
0.122741
-0.119052
-0.029579
0.170355
-0.059755
-0.038650
-0.076666
-0.203357
0.430906
-0.127320
-0.225333
-0.067422
-0.125250
-0.039059
-0.070000
-0.070932
-0.392355
0.066108
-0.091294
0.207864
-0.045098
0.018928
-0.109670
-0.038416
0.158512
0.110976
0.081044
0.007103
0.069401
-0.134429
-0.033570
0.165804
0.107960
0.059615
-0.046787
-0.067275
-0.194263
-0.085009
-0.215329
-0.140170
-0.207621
-0.077860
0.183189
-0.323782
0.104122
-0.009131
-0.151063
0.220221
0.087732
0.035807
0.003603
-0.121481
-0.343980
-0.007856
-0.053550
-0.066545
-0.270989
-0.328078
-0.369136
0.057438
-0.189689
-0.294014
-0.142734
-0.228938
0.033611
0.338740
-0.253541
0.075659
0.153516
-0.113435
-0.229610
0.043113
0.080831
0.142490
0.245200
0.082490
0.210555
0.007211
0.230583
0.061379
0.010618
-0.116459
0.258849
0.565948
0.551531
0.910897
1.077898
1.392045
1.038703
0.982672
0.486155
0.239319
-0.024748
-0.128133
-0.090276
-0.100888
-0.082015
0.133098
0.087213
0.050165
-0.114347
-0.121103
-0.115201
0.026515
-0.013384
-0.158126
0.299497
-0.017234
-0.065117
-0.105229
0.029257
-0.103651
0.189567
-0.208176
0.082313
0.447728
-0.114075
-0.069898
-0.108000
0.019925
0.021044
-0.079376
0.051895
-0.191453
0.147564
-0.136145
0.242913
0.061685
0.163056
-0.189351
-0.115062
0.198896
0.124363
0.021892
-0.142536
-0.107537
0.252978
-0.195086
-0.422967
0.050045
-0.058735
-0.156100
0.033576
-0.067720
0.169681
-0.238253
-0.125794
-0.035323
-0.081483
0.054603
-0.109344
-0.226071
-0.112712
0.005011
-0.004389
0.158891
-0.198471
0.243349
0.124779
0.177923
0.073070
-0.054443
-0.131474
-0.119547
0.033637
0.121232
0.290748
0.060478
0.005629
0.254439
0.396549
0.096658
0.404943
0.434369
0.289223
0.225576
0.470510
0.365596
0.308193
0.306218
0.160717
0.339985
0.433827
0.000336
0.066812
0.019059
0.067376
0.073647
0.115666
0.184658
0.211422
-0.021854
-0.419106
0.146352
0.169343
0.260720
0.013707
-0.084905
-0.192879
-0.136405
0.099969
-0.047078
-0.009827
-0.196497
0.154463
0.110065
-0.010041
0.022842
-0.009721
-0.175504
0.004516
-0.036072
0.038693
0.194933
0.009215
-0.198164
0.316303
0.084520
0.223609
0.120780
0.029182
0.135281
-0.112346
-0.085281
-0.120045
-0.188023
-0.218308
0.010694
-0.044918
-0.094289
-0.321184
-0.182364
0.218590
-0.171576
0.316188
-0.132869
-0.000680
0.167519
-0.171089
0.183407
-0.157736
-0.153984
-0.239434
0.011830
-0.058862
0.211109
-0.260695
-0.157749
0.008148
0.385240
-0.301579
-0.064512
-0.144171
-0.143346
-0.068754
-0.002072
-0.113381
0.087126
-0.041458
0.190485
0.050933
-0.266568
-0.090424
-0.172571
0.176943
0.214803
-0.396060
0.054190
0.000254
-0.124471
-0.004413
-0.232892
0.067973
0.090565
-0.317603
-0.049275
-0.106024
0.163440
-0.116056
-0.438744
0.028557
-0.180354
-0.042350
-0.125998
-0.088706
0.165791
-0.187570
0.062843
-0.151846
-0.010518
0.143295
0.204041
-0.096191
-0.153483
0.138667
0.018553
-0.156181
-0.064885
0.138955
-0.067220
0.081495
-0.165610
0.192904
-0.106760
-0.022195
0.058934
-0.022696
-0.119792
-0.056392
0.166941
0.163598
-0.011736
-0.309146
-0.078385
0.056860
-0.023234
0.152512
-0.022248
-0.114092
0.178160
0.172064
0.000967
0.166872
0.119703
-0.020024
-0.012380
-0.358608
-0.001686
0.137259
0.090272
-0.363717
0.154095
-0.035417
0.055162
0.061799
-0.326406
0.099839
-0.184957
-0.244138
-0.373749
-0.003242
-0.203258
-0.089488
0.144044
-0.015141
-0.087454
-0.275100
-0.126828
-0.190181
0.097652
-0.186256
0.078833
0.190317
0.124398
0.006286
-0.009715
0.045581
-0.186882
0.049467
-0.128284
0.117534
0.110608
0.058773
-0.051055
-0.035598
0.035206
-0.036720
-0.115231
-0.158403
-0.021649
0.203523
-0.032118
-0.037074
0.086587
0.118820
0.014307
0.072559
-0.153055
-0.021949
-0.141643
0.265995
-0.075891
0.030923
-0.080358
-0.068998
-0.039699
0.029304
-0.143054
0.031075
0.081766
0.143873
-0.091713
-0.138500
-0.069792
0.168602
-0.140119
0.011255
-0.056927
-0.007512
0.389839
0.604115
0.979195
1.202765
1.229767
1.012262
0.921200
0.472909
0.517049
-0.052509
-0.162325
0.223788
-0.029622
0.088575
0.056388
0.159771
0.099933
0.152697
0.013865
0.082022
-0.083161
0.024785
-0.120981
0.017277
0.314839
0.033647
0.264675
-0.022451
0.350086
0.096655
0.096854
-0.310157
0.061009
-0.046263
-0.119436
0.063572
-0.104206
0.149779
0.254189
-0.075269
0.207574
0.269494
-0.149596
0.078889
0.300611
-0.152164
0.135201
0.019985
0.108056
-0.012648
0.129270
0.216612
-0.064678
-0.057097
0.295234
0.038259
0.232968
0.008613
0.141281
-0.025732
0.053248
0.177828
0.013394
0.194357
-0.086403
0.151814
-0.105519
-0.134237
-0.018908
-0.135927
-0.048610
-0.172169
0.207246
0.064020
0.077747
-0.027051
-0.329552
0.248672
-0.138245
0.065600
0.031465
0.060269
0.111123
-0.001932
-0.089414
-0.068461
0.100227
0.414375
0.504446
0.126437
0.221767
0.252871
0.197690
0.402695
0.309297
0.400439
0.280458
-0.084939
0.030735
0.222227
0.181298
-0.052136
0.281608
0.230353
0.043210
0.029895
0.259798
-0.157734
0.289050
0.087420
0.117923
0.037266
-0.184981
0.134277
0.469129
-0.163420
-0.069364
0.103155
-0.321810
-0.082908
-0.074894
0.273544
0.095256
-0.012892
0.007798
-0.369427
0.027119
0.154309
-0.007059
-0.039152
-0.025112
-0.114851
0.005536
-0.298686
0.012973
0.023803
0.217630
0.082525
0.120675
0.019922
0.367147
0.157126
0.211399
0.414444
0.962061
1.353740
1.468369
0.999200
1.057717
0.580703
0.348664
0.451187
0.281842
-0.017698
-0.006762
-0.061125
-0.163865
0.082721
-0.177621
-0.151098
0.164562
-0.029532
0.029170
-0.041785
0.119700
0.160921
0.211516
0.072750
0.133005
0.079227
-0.088918
0.119611
-0.212889
0.402230
-0.108595
-0.112395
0.078654
-0.024862
-0.031989
0.337861
-0.047713
0.171343
0.211110
0.037379
-0.058631
0.013279
-0.018350
-0.063237
-0.266239
-0.142359
-0.154726
-0.299835
-0.048019
-0.257000
0.030338
0.120652
0.118951
-0.092557
0.062094
0.022463
-0.197412
0.180890
-0.143778
-0.156617
-0.065340
0.084321
0.156184
0.206083
0.125365
-0.174481
-0.100190
0.059697
-0.342780
0.135154
-0.123470
0.162235
0.052415
-0.054834
0.104036
-0.091844
0.095127
0.068573
-0.148997
0.008275
0.072552
0.226382
0.336654
0.615741
0.236816
0.029764
0.038481
0.301820
0.352998
0.394089
0.503184
0.103435
0.355320
0.329624
0.187665
0.232257
0.430636
0.334968
-0.002669
0.389097
-0.145386
0.225829
0.078592
0.128343
0.197169
0.095548
0.240309
0.090556
0.181078
-0.069869
0.051464
-0.209004
0.029616
-0.012017
0.128018
-0.059498
0.043143
-0.174750
-0.164802
-0.193447
-0.097143
-0.147856
-0.157109
-0.124785
-0.163359
0.126471
-0.044288
0.107250
-0.116438
0.181370
0.096341
-0.089934
-0.229579
-0.077500
0.119863
-0.152510
-0.185396
0.006812
-0.339447
0.121021
0.329904
-0.137289
-0.042698
0.191512
0.238244
0.342401
-0.182532
-0.012149
0.160993
0.220558
-0.293321
-0.252831
-0.061622
-0.176061
-0.002133
-0.182428
0.105924
0.170859
-0.219837
0.156612
0.065295
0.110335
0.167798
-0.248700
0.219562
-0.060703
-0.012637
-0.247836
0.039678
0.035156
0.043930
0.053982
-0.031658
-0.016272
-0.007914
-0.248438
-0.259913
0.206245
0.141845
-0.158276
0.011320
0.120246
-0.009617
0.103252
0.042666
-0.201478
-0.313756
-0.009212
0.149025
0.052249
0.026058
-0.240690
-0.085815
0.165871
0.056418
-0.171895
0.395762
-0.230905
-0.161361
0.010865
-0.054694
0.127383
0.209324
0.087408
-0.306454
0.151438
0.268006
-0.215643
-0.226196
0.053994
0.077418
-0.088389
0.012582
0.105762
-0.001464
-0.164731
-0.119405
0.210703
-0.003301
-0.069959
-0.164221
0.212320
0.018589
0.107758
-0.025621
0.126754
0.103187
0.198291
-0.175787
0.123535
-0.056610
-0.282838
-0.213458
0.005626
0.057849
0.087803
0.045911
0.244463
0.289549
0.579180
0.991248
0.973856
1.098529
1.291670
1.015428
0.738840
0.573809
0.279410
0.132043
0.023210
0.161680
0.100407
0.199114
-0.040540
-0.019941
-0.004762
-0.132171
0.093000
-0.124938
-0.178104
-0.071665
-0.102302
0.140183
0.511515
-0.040186
0.065483
-0.003855
0.018718
0.142674
0.287954
-0.158679
-0.078725
0.121851
0.001647
0.126582
0.196766
0.243100
-0.119871
0.080748
-0.222245
0.108741
0.188938
-0.066175
-0.198102
0.103360
0.234525
-0.137891
-0.121532
-0.092009
0.245650
-0.062221
0.093674
-0.131082
-0.014845
0.059771
0.374380
0.046204
0.075430
-0.003649
-0.014314
-0.012023
-0.019620
0.020541
-0.018908
0.353511
-0.130085
-0.172117
-0.098119
-0.136663
-0.004357
0.021305
0.034837
-0.028261
-0.010298
0.081118
0.066854
-0.020538
0.304068
0.186644
-0.082734
-0.197805
-0.059310
0.222602
0.026206
-0.052621
0.063507
0.112491
0.012114
0.333203
0.084743
0.090346
0.281510
0.164090
0.189415
0.134672
0.270349
0.253611
0.390580
0.149455
0.398831
0.058421
0.089224
0.028626
0.052601
0.359229
0.218565
0.192228
-0.267983
0.182679
0.084093
0.119304
0.209024
0.270526
0.037769
-0.154656
0.181269
0.087449
-0.147437
0.269534
-0.312171
0.225804
-0.045282
0.070206
0.013920
-0.195277
-0.167846
-0.225453
0.080670
-0.317673
-0.045916
0.120620
0.096805
0.155819
-0.051884
0.042764
-0.075899
-0.332098
-0.200501
-0.151549
0.189796
0.129643
-0.045971
-0.088054
-0.060132
0.165123
0.072627
-0.086291
-0.151457
-0.151049
-0.206754
-0.368196
0.034093
-0.286348
0.233245
0.399793
-0.107763
0.216224
-0.143256
-0.061269
0.151946
-0.122220
0.112603
0.217176
0.327195
-0.007265
-0.061451
0.066070
-0.081837
-0.050976
-0.013356
0.006831
0.022296
-0.094456
0.037091
-0.083229
0.002191
-0.096871
-0.340663
-0.007605
-0.164626
-0.126955
0.020529
-0.341472
0.084980
-0.101240
-0.253566
-0.050298
0.026118
-0.169695
0.003907
0.415858
0.094379
-0.065829
0.220893
-0.064980
-0.180414
-0.107725
-0.176841
0.339075
-0.062260
-0.086392
0.203113
0.287616
0.046156
0.159701
-0.140872
0.153342
-0.131712
0.138060
-0.078766
-0.111603
-0.067624
-0.114851
0.261850
-0.074251
-0.310876
-0.056441
-0.194008
-0.191568
-0.073611
-0.143134
0.003687
-0.254074
-0.085587
0.055723
-0.046072
0.142704
0.065310
0.342665
0.053851
-0.205121
0.233816
-0.156510
-0.005495
-0.051045
0.123330
-0.155858
0.052320
0.035986
-0.088633
0.007414
0.057406
0.061422
-0.070012
-0.149928
0.041085
0.067650
-0.072227
0.033828
0.028349
-0.024878
0.496853
-0.184775
0.280818
0.306184
0.652129
0.973148
1.232798
1.054892
0.944026
0.707882
0.542028
0.322098
0.498929
0.117374
0.069399
-0.186067
-0.354739
-0.283292
0.013486
0.089340
0.288407
0.022187
0.129121
-0.087281
-0.032684
0.080022
-0.180046
-0.071864
0.132554
0.164644
0.129406
-0.285381
-0.069385
0.119419
0.131491
0.113370
-0.253483
-0.141086
0.483664
-0.289762
0.202477
0.119171
-0.193671
0.112483
0.025566
-0.056296
-0.203137
-0.106554
-0.114588
0.018390
-0.033448
-0.232479
-0.405884
-0.037086
0.043715
0.154525
0.042449
-0.264230
0.117915
-0.078242
-0.150307
0.021281
-0.147037
0.249367
-0.161239
-0.214474
0.387068
0.000504
0.024480
0.084567
0.100208
0.049778
0.015241
0.091734
0.171182
0.133865
-0.215214
0.181926
0.149232
0.124442
0.371315
-0.087905
0.113854
0.091906
0.026054
0.000377
0.275830
0.149120
0.214554
0.330022
0.137771
0.015742
0.301615
0.118183
0.276987
0.185413
0.300331
0.431754
0.075980
0.130142
0.195912
0.247350
0.216534
0.278732
0.222670
0.178294
0.287506
0.348120
-0.084097
0.078020
-0.151455
-0.234375
0.253073
-0.189604
-0.117973
0.109532
0.278171
0.178830
-0.226846
0.119474
-0.002863
-0.078405
0.141526
0.160219
0.082577
0.022422
0.115325
-0.160319
-0.122297
0.210267
-0.065589
0.173746
0.041801
-0.025307
0.015808
-0.117674
0.101345
-0.195366
-0.084912
-0.217198
0.075848
-0.130498
-0.273712
0.202008
0.012354
0.061627
-0.148749
0.392534
0.003284
-0.142168
-0.300724
0.101303
-0.270024
-0.135334
0.222379
-0.069467
0.066226
-0.124029
-0.033457
-0.145150
0.012472
-0.159576
-0.085541
-0.069256
-0.142428
-0.144218
0.055366
0.033501
0.194050
0.178236
-0.120732
-0.231457
0.055145
-0.185963
0.050138
0.290430
0.097304
0.142302
0.183735
0.097397
-0.383823
0.119672
-0.039011
-0.094049
0.154974
-0.183164
0.127402
0.047879
-0.088294
-0.263640
-0.135247
0.080880
-0.322707
-0.268039
0.167539
0.133570
-0.044960
-0.074089
0.019643
0.204436
0.207124
-0.443305
0.209161
-0.114775
0.104998
0.085522
0.104081
0.134720
-0.083805
-0.084690
0.122330
-0.329954
0.040292
0.103426
-0.281989
0.156969
0.067726
0.029215
0.118847
-0.176397
-0.054747
0.104704
0.021148
0.090398
0.003004
-0.003908
-0.097858
0.252150
-0.118770
-0.004983
-0.079999
-0.123915
0.052121
0.202845
0.190838
-0.043043
0.185273
0.311052
-0.316836
-0.165174
-0.229357
0.028732
-0.077924
0.137274
0.005061
-0.032836
-0.231164
0.034150
-0.045788
0.021516
0.033192
0.412397
0.429099
0.594697
0.988721
1.188825
1.139857
0.692684
0.572884
0.476539
0.376270
0.269464
-0.302328
0.187686
-0.111496
0.236501
0.139688
-0.097776
0.102226
0.070344
0.121267
-0.214207
0.066021
-0.155096
0.154065
0.082896
0.059931
0.127660
0.025373
-0.322414
0.292614
0.211540
-0.131416
-0.085557
0.102924
0.013663
-0.187774
0.216736
0.134308
-0.020305
0.056113
0.040332
-0.014040
0.209051
-0.026436
-0.258388
-0.059802
0.447575
-0.140066
-0.319281
-0.274694
-0.066556
0.092223
0.300477
-0.028581
-0.025679
-0.168917
-0.144529
0.085091
0.068381
0.109486
0.093914
-0.093247
0.100003
0.068639
-0.228194
0.080354
-0.077022
0.197261
0.061502
-0.271709
-0.037559
0.208578
-0.117029
-0.151775
-0.004480
-0.065343
-0.227158
0.237173
0.125240
0.013208
-0.128922
-0.016489
-0.123363
0.205511
0.048101
0.211450
0.381568
0.259640
0.491030
0.392794
0.268426
0.253246
0.308736
0.207509
0.371918
0.081126
-0.005261
0.294113
0.091391
0.010743
0.278733
0.001547
-0.078725
0.116648
0.325256
0.084362
0.320014
-0.178629
0.115926
0.127484
0.016595
0.215894
0.308380
-0.009158
0.092161
0.138642
-0.021626
-0.141590
-0.080851
0.064845
0.123046
-0.149758
-0.054349
0.134836
-0.280206
0.085515
0.211698
0.213893
0.116746
-0.102724
0.078470
0.116542
-0.111563
0.242174
-0.059216
-0.123625
-0.071022
-0.122403
0.010835
-0.111272
-0.069861
-0.250649
-0.079640
-0.023395
-0.035157
0.133744
0.065280
0.391784
0.101233
-0.003849
0.286551
0.003377
-0.044292
-0.105465
0.044781
-0.190059
0.077328
0.213491
-0.276439
-0.328569
-0.165945
-0.311797
-0.072194
-0.108024
0.001584
-0.106671
-0.253084
0.032633
0.039434
-0.153384
-0.041544
-0.046272
0.208164
-0.124781
-0.000311
0.065398
0.208892
-0.054387
0.157858
-0.031750
0.069193
0.108903
0.179047
0.231344
-0.034572
-0.120328
-0.047589
-0.069769
0.088533
-0.059915
-0.041005
-0.093975
-0.052812
0.049206
0.118054
0.147522
0.279144
0.438149
0.599439
0.932327
1.228510
1.285089
1.184883
0.767113
0.525734
0.291190
0.205507
-0.140439
-0.037711
-0.150987
0.158836
-0.150039
0.115064
0.074543
-0.066906
-0.217991
0.010610
-0.088430
0.000227
0.079832
0.102103
-0.024145
-0.009611
0.275916
0.087700
-0.053715
-0.171095
-0.358901
-0.093699
-0.101532
-0.027440
-0.189574
0.028994
0.246626
0.259503
-0.114892
-0.006097
0.120680
0.030167
0.026856
-0.169560
-0.218906
-0.243582
-0.062146
-0.082922
-0.007450
-0.013610
0.252432
0.238420
0.192695
-0.064924
0.229512
-0.047507
-0.083022
0.216714
0.079664
-0.206924
0.367724
-0.032043
0.187345
0.065824
-0.019242
0.156111
0.128775
-0.017934
-0.086530
-0.015139
0.198787
-0.085781
-0.047134
-0.265186
-0.156148
0.172456
-0.305946
-0.253011
0.077373
0.006105
0.175673
-0.007602
0.162280
0.131257
0.148468
-0.013644
0.463454
0.327713
0.229809
0.284356
0.045461
0.165282
0.283910
0.250079
0.175945
0.382425
0.226608
0.276240
0.418553
0.088014
0.265787
0.220895
0.167607
0.064936
0.103203
0.069585
-0.107620
-0.065947
-0.066447
0.158140
0.157679
-0.070400
-0.024267
0.376594
-0.192018
0.016390
-0.072908
0.074834
0.099255
0.013202
-0.020092
-0.012555
-0.118019
0.274158
0.010438
-0.000849
0.031144
-0.036747
-0.047339
-0.139763
0.112709
-0.113363
-0.039395
0.001554
0.095096
-0.147311
-0.203840
-0.205137
0.029466
-0.118626
0.133803
-0.102404
-0.144039
-0.366689
-0.072470
0.118218
-0.219661
0.055565
0.056842
-0.001632
0.051137
-0.009010
-0.180332
0.165811
0.092627
-0.056758
-0.067865
-0.027162
0.069659
-0.147965
-0.060526
0.248099
0.073167
-0.133723
0.251200
0.073212
-0.088533
0.041119
-0.169527
0.029599
0.080202
0.261906
0.080478
0.177567
-0.208192
-0.005138
0.156721
0.064584
-0.122581
-0.017669
0.149410
-0.182094
-0.132407
0.023336
0.060325
0.081000
0.230902
0.267230
-0.055649
0.099680
-0.054371
-0.189798
-0.085509
-0.330602
-0.130058
0.170341
-0.024586
-0.280696
0.013792
-0.130173
0.062425
-0.043930
-0.233923
-0.066985
-0.231676
0.124030
0.075101
-0.143994
-0.176351
0.049228
-0.065248
0.269928
0.026679
0.285628
-0.034919
0.058293
-0.360162
0.183310
-0.203061
-0.206578
0.105642
0.051485
-0.007336
-0.007516
-0.002252
0.120264
0.195396
-0.033022
0.117641
0.026351
-0.086546
-0.023026
0.139282
-0.117713
0.057166
0.011147
-0.096329
0.057807
0.024130
-0.124212
0.393435
-0.043215
0.145924
-0.240210
-0.156314
0.029760
-0.153685
-0.083581
0.189116
-0.056202
0.044704
-0.172280
0.022277
0.001311
0.026297
0.157694
-0.124819
0.145208
-0.052494
-0.201376
-0.128874
0.236824
-0.120955
0.033426
0.262523
0.382991
0.014800
-0.112204
0.027548
-0.096185
-0.168103
0.054005
0.037615
-0.371832
0.057022
-0.039998
0.066190
0.026028
0.186690
-0.372608
-0.098106
-0.051588
0.125239
-0.164105
0.265981
0.123018
0.429207
0.138138
-0.175652
-0.155437
0.110088
0.024175
-0.087198
-0.068699
-0.013462
0.082487
0.104811
-0.011154
0.098831
0.175314
0.246993
0.064618
-0.148020
-0.063488
-0.191517
-0.192728
-0.024593
-0.130742
-0.267222
-0.032217
0.019010
-0.003140
0.068621
-0.013727
0.176722
0.142573
0.422448
0.742410
1.069472
1.092119
1.169536
1.056125
0.505517
0.326648
0.098114
0.076107
0.012092
-0.089680
0.050611
0.034341
-0.107817
-0.094779
0.021675
0.016558
0.103761
-0.141901
0.023800
0.210422
-0.291724
-0.136709
-0.111422
0.014902
-0.027499
0.026530
-0.064603
0.209589
-0.020466
0.025835
0.018452
0.251705
0.261966
-0.338435
-0.079264
0.029521
-0.214019
0.093736
0.074994
-0.027216
0.138978
-0.184054
-0.318742
0.303479
0.185204
-0.092319
-0.008145
-0.081791
-0.120810
0.145573
0.048500
0.107278
-0.280494
-0.305994
-0.036346
0.055379
-0.054657
-0.077580
0.236573
0.395346
-0.127726
-0.144733
-0.195649
-0.005517
-0.048048
-0.045160
-0.083924
0.067741
0.250660
-0.358415
0.044151
-0.284108
0.242492
0.123405
-0.157735
-0.051231
0.005108
0.315079
-0.024731
-0.041919
-0.161028
0.099779
0.056724
0.149639
0.157236
0.076489
-0.054256
0.258094
-0.036686
0.360433
0.322852
0.241328
0.251938
0.222615
0.131284
0.350710
0.210975
0.288067
-0.029226
0.171712
0.201526
0.307591
0.098662
0.216897
0.248017
0.069300
-0.113026
-0.117168
0.039195
-0.155080
0.033315
-0.228963
0.159801
0.051867
0.263027
0.260980
0.098879
-0.076974
-0.153275
0.058643
0.007206
0.130767
-0.010249
-0.019072
0.018029
-0.376290
0.141299
0.047565
0.102774
-0.021602
-0.225568
-0.270845
-0.256217
0.116898
0.146147
0.253002
-0.139066
0.084354
-0.103051
0.155038
-0.004148
0.335579
-0.050457
-0.014379
-0.113343
0.109959
0.120314
0.227982
-0.026879
0.051898
-0.042426
-0.036861
0.154587
-0.194608
0.357351
0.029953
0.251203
-0.118122
0.062501
0.122251
0.155221
-0.170080
0.137708
0.122757
-0.130312
0.016286
-0.035098
-0.139104
-0.167308
0.239805
-0.118255
-0.030081
0.220755
0.295609
-0.104495
0.002854
-0.115308
0.294264
0.194544
0.046152
0.074473
-0.230384
-0.059104
0.288180
0.184784
-0.298651
-0.008324
0.387619
0.107376
0.081950
-0.162992
0.153312
0.149409
-0.078384
-0.225157
-0.274869
0.126977
-0.203625
0.237182
-0.151555
0.040493
0.179999
0.003729
0.080299
0.070735
0.032414
0.057699
0.058617
0.143970
-0.125666
0.166191
0.185710
-0.064127
-0.004515
0.098798
-0.170706
-0.279937
0.090992
0.092852
-0.047535
-0.145495
0.116372
0.257084
0.240747
0.112880
0.107780
0.008670
0.011302
-0.017703
0.087372
-0.063701
0.228518
0.027709
-0.327030
0.291255
-0.181512
0.024586
0.056422
-0.009576
-0.023044
0.107414
0.066482
0.028626
-0.027612
-0.167632
0.118191
-0.271853
-0.077623
0.237992
-0.264109
-0.229064
0.074818
-0.099862
-0.109578
-0.092744
0.111990
-0.336021
0.204712
0.254656
0.139460
0.080798
-0.097753
-0.275309
-0.051884
-0.101778
0.051724
0.012515
0.062175
0.061413
0.096992
0.164086
-0.133850
0.115333
-0.051662
-0.040789
-0.337715
0.070460
0.179826
0.081110
0.031061
-0.022253
-0.062261
-0.025079
0.208909
-0.193208
0.116665
0.246111
0.065782
-0.067926
-0.033193
0.168082
0.027252
-0.262746
0.230925
0.156398
0.167478
0.296996
0.599278
0.860004
1.128827
1.239343
1.089738
0.931581
0.480717
0.426605
0.239253
-0.029060
0.385628
-0.042697
-0.046567
-0.005607
0.141347
-0.148324
-0.148169
0.258644
0.062259
-0.060609
-0.011826
-0.177499
0.014674
-0.128608
0.302831
0.033860
0.132887
0.040949
-0.250109
0.145689
-0.109758
0.257821
-0.046720
-0.132054
0.006426
-0.088609
-0.267002
-0.119147
-0.040911
-0.050595
0.021658
-0.048961
-0.313526
-0.150791
0.053465
-0.265529
-0.060349
-0.169824
0.079622
0.152965
0.096475
0.216505
-0.080052
-0.087542
-0.152717
-0.023664
0.059079
0.081651
-0.169034
0.123477
0.032710
-0.088551
0.033379
-0.048850
0.097281
-0.280603
0.030243
0.091864
-0.217123
-0.287505
-0.189498
0.029760
-0.043856
0.126813
-0.162024
0.289459
-0.171490
0.038111
-0.072715
0.138573
-0.026702
0.078962
-0.007919
0.226142
0.107449
0.038440
0.078996
0.164955
-0.047278
0.230621
0.302254
-0.263080
0.262534
0.136491
0.290459
0.374827
0.618462
0.400304
0.149066
0.269531
0.174357
-0.019252
-0.038409
0.098808
0.072906
-0.171507
0.107887
-0.204392
0.114820
0.319167
-0.057236
-0.204912
0.123734
-0.045003
0.274309
-0.015145
0.023100
0.026501
0.248141
0.021399
0.211509
0.150494
0.346873
-0.057313
-0.072877
0.161141
-0.227216
-0.096468
-0.232509
0.012190
0.256839
0.149408
0.232102
-0.050491
0.220618
-0.054760
0.004134
-0.003507
-0.031261
0.015524
0.412749
-0.170363
-0.133599
0.064340
-0.109321
0.159168
-0.024715
-0.006995
-0.057995
-0.067993
-0.007728
-0.386430
0.031153
0.026029
0.052512
0.115057
-0.113177
0.305448
-0.171121
-0.084895
0.015852
-0.199666
0.099667
-0.050096
0.220408
0.131449
0.474320
0.493914
1.035116
1.045516
1.200272
1.051196
0.945199
0.600601
0.187149
0.245065
-0.061995
0.167205
-0.021230
0.168620
-0.001505
-0.080397
-0.042337
0.093646
0.103850
-0.040994
-0.061335
-0.185386
0.031365
0.093361
-0.021394
-0.038545
-0.036304
0.226250
-0.068961
-0.037660
-0.286571
-0.036878
0.178756
0.114788
0.004302
0.196668
0.028016
-0.129804
0.010924
-0.209829
-0.033828
-0.007396
-0.199351
-0.151689
0.021590
0.017179
-0.112038
0.075919
-0.097981
-0.322852
-0.063209
0.166181
-0.116157
0.141263
0.294271
0.181742
0.059883
-0.159877
0.333637
-0.204389
0.031446
0.058163
-0.254236
-0.120232
-0.137188
-0.067275
0.189602
-0.164583
0.013981
0.019490
0.171211
0.104370
-0.056714
-0.087862
-0.017081
-0.115685
0.018022
-0.022621
0.157486
-0.028275
-0.149054
0.002892
0.066117
-0.052417
0.027755
0.051364
0.131550
0.155506
0.411892
0.021880
0.423972
0.392892
0.215351
0.366240
0.209667
0.112825
0.167199
-0.071796
0.144467
0.010787
0.332636
0.051191
0.343501
0.196927
0.030825
0.259379
0.228271
-0.003080
0.030361
-0.012044
0.081756
-0.324753
-0.064733
-0.110448
0.110253
-0.043850
-0.023589
-0.321449
0.088990
0.028933
0.067586
0.065660
0.061365
0.125298
0.203930
-0.007351
0.192173
0.167549
-0.075787
0.211145
-0.094690
0.271806
0.116561
-0.016084
0.176557
0.145699
-0.223031
-0.068179
-0.120836
0.162771
-0.022146
0.054476
-0.146402
0.260571
-0.124820
0.170624
-0.113068
0.033316
-0.148816
0.171525
0.021161
0.239813
0.118876
-0.079528
0.159862
-0.187113
0.093419
0.048155
-0.090218
0.053768
0.030768
-0.058901
-0.181760
-0.105091
-0.005650
-0.054540
0.040266
-0.073398
0.034937
0.148496
-0.292457
-0.002360
0.179646
0.105832
-0.060148
-0.030555
0.112493
-0.153300
0.006396
-0.055184
0.009741
0.084180
0.063635
-0.180351
0.120202
-0.031719
-0.289222
0.083307
0.105770
-0.208582
0.037465
-0.088570
-0.171458
0.048037
0.035771
-0.093003
-0.074722
-0.140908
-0.116706
0.059963
0.050118
-0.147445
0.036135
0.080309
-0.038517
-0.105133
0.034581
0.120311
0.083172
0.064717
-0.078216
0.116483
-0.260649
-0.156854
0.116587
-0.068397
-0.034010
0.147488
-0.209543
0.026935
0.113022
-0.095645
0.093787
0.008558
-0.176345
0.056006
0.164859
-0.132188
-0.131463
0.055552
-0.028420
-0.193679
0.174619
-0.081863
-0.065791
0.282625
0.110118
-0.233973
0.021271
-0.085904
0.121221
-0.088655
0.186567
-0.134471
0.167817
-0.195860
0.240781
0.185566
0.009030
-0.110803
0.052327
0.082664
-0.095355
-0.032354
-0.101344
-0.004280
0.083075
0.282376
0.034707
0.192685
0.045842
0.463105
0.597066
0.886735
1.201241
0.959767
1.070098
