time,amplitude
0.0,0.001521610817373434
0.0027785495971103086,-0.01579885680916137
0.005557099194220617,-0.041253402147020043
0.008335648791330925,-0.015996038277451496
0.011114198388441235,-0.02250756979767579
0.013892747985551544,-0.013046309005775443
0.01667129758266185,-0.0660373475111403
0.01944984717977216,0.048940012669026214
0.02222839677688247,0.009879768675544107
0.025006946373992776,-0.06047284554241642
0.027785495971103087,-0.06638151404611632
0.030564045568213394,-0.07863603074138938
0.0333425951653237,-0.043253217842041836
0.03612114476243401,-0.006318799069213464
0.03889969435954432,0.054275503414272695
0.04167824395665463,-0.0644855946947753
0.04445679355376494,-0.007328172615666469
0.04723534315087525,0.04233188891935802
0.05001389274798555,0.05938960086260528
0.052792442345095864,-0.038745305608958315
0.055570991942206174,0.057964598049068033
0.05834954153931648,-0.04369015212202759
0.06112809113642679,-0.017712384584810666
0.06390664073353709,0.005928427275703138
0.0666851903306474,-0.02696493024099533
0.06946373992775771,-0.025705008038291895
0.07224228952486803,-0.030305457719243867
0.07502083912197834,-0.06607859543405917
0.07779938871908865,-0.004819104053637839
0.08057793831619894,0.1404551732924424
0.08335648791330925,-0.01854678389420653
0.08613503751041957,0.001990214222627357
0.08891358710752988,0.03088665899950025
0.09169213670464019,0.002069653468755035
0.0944706863017505,0.08406039378885644
0.09724923589886081,0.023663080688829805
0.1000277854959711,0.013030391998535671
0.10280633509308142,-0.05358939776459068
0.10558488469019173,0.04826426636995439
0.10836343428730204,0.03627337207903313
0.11114198388441235,0.002286155868422332
0.11392053348152266,0.0656601999687723
0.11669908307863296,0.0698964570562198
0.11947763267574327,-0.04042888277417065
0.12225618227285358,0.0711312737973102
0.1250347318699639,0.11227961941985966
0.12781328146707419,0.1217923006593192
0.1305918310641845,0.13824080539283473
0.1333703806612948,0.17529683747714028
0.13614893025840513,0.2292943880687087
0.13892747985551543,0.238300331462351
0.14170602945262575,0.19559208956044702
0.14448457904973605,0.2640187781450662
0.14726312864684635,0.28333781352109494
0.15004167824395667,0.3355082564109043
0.15282022784106697,0.2995983625593261
0.1555987774381773,0.3677738968727103
0.1583773270352876,0.26809435750174576
0.1611558766323979,0.2734371914801708
0.1639344262295082,0.32358123978753783
0.1667129758266185,0.20999873612961356
0.16949152542372883,0.14335140034622224
0.17227007502083913,0.07046600647974227
0.17504862461794946,0.04325746978707529
0.17782717421505975,0.0500469025593154
0.18060572381217005,0.013036568017782496
0.18338427340928037,0.047896393366679314
0.18616282300639067,0.073656253787309
0.188941372603501,-0.002673289715483326
0.1917199222006113,0.021348478999221744
0.19449847179772162,0.0765668487483118
0.19727702139483191,-0.02423846891815644
0.2000555709919422,0.06603296275316592
0.20283412058905254,0.061013517917406127
0.20561267018616283,0.1886478438101504
0.20839121978327316,0.4216669007902243
0.21116976938038345,0.7604222037087507
0.21394831897749375,1.1303565681965142
0.21672686857460408,1.3948850908257222
0.21950541817171437,1.591150705538505
0.2222839677688247,1.5654610228877865
0.225062517365935,1.225312428589762
0.22784106696304532,0.8243754871795237
0.23061961656015562,0.5437208514659149
0.2333981661572659,0.3135779963734204
0.23617671575437624,0.18040351856928566
0.23895526535148653,0.09985591512426571
0.24173381494859686,0.009709082604146674
0.24451236454570716,0.05354767215445111
0.24729091414281748,-0.01118792151538546
0.2500694637399278,-0.042603309156479634
0.2528480133370381,0.04311455138895766
0.25562656293414837,-0.040765549790362406
0.2584051125312587,-0.05290824154274741
0.261183662128369,-0.07442031246792002
0.26396221172547935,0.03071591896317259
0.2667407613225896,-0.0038534461516829227
0.26951931091969994,0.015085823769221428
0.27229786051681026,0.009923095767782561
0.27507641011392053,0.03909168290503741
0.27785495971103086,-0.01131282672497252
0.2806335093081412,0.030637569730636433
0.2834120589052515,0.062038048245020634
0.2861906085023618,-0.028081147131237057
0.2889691580994721,0.03858361298911616
0.2917477076965824,0.03594401587058247
0.2945262572936927,-0.03374101625360316
0.297304806890803,-0.006179890885292964
0.30008335648791334,0.040374236499709205
0.3028619060850236,-0.008817988063764728
0.30564045568213394,-0.06048515955750582
0.30841900527924426,-0.015269082699273417
0.3111975548763546,0.004557509689999677
0.31397610447346486,-0.04662537461672959
0.3167546540705752,0.023265760842378424
0.3195332036676855,-0.0020776658607073056
0.3223117532647958,0.015997884280525333
0.3250903028619061,0.06043475200223073
0.3278688524590164,0.0046076592585031955
0.33064740205612675,-0.036479238996249955
0.333425951653237,-0.018514196927700125
0.33620450125034734,-0.007245297568537329
0.33898305084745767,-0.05182247072353026
0.34176160044456794,-0.012216457917670039
0.34454015004167826,0.047860034202634336
0.3473186996387886,-0.05392684777863293
0.3500972492358989,-0.039865948638189215
0.3528757988330092,-0.031463032637776056
0.3556543484301195,-0.011208024093064352
0.35843289802722983,-0.014383965089320624
0.3612114476243401,-0.02755362160793135
0.3639899972214504,0.004229352372457322
0.36676854681856075,0.04006073501040866
0.3695470964156711,-0.035589990859428926
0.37232564601278134,0.03210207281759356
0.37510419560989167,-0.027869645865035042
0.377882745207002,-0.03453161398134922
0.38066129480411226,-0.009923452521843245
0.3834398444012226,0.055669284307115076
0.3862183939983329,-0.04228893175251985
0.38899694359544323,0.0540137804444943
0.3917754931925535,-0.021934210883865317
0.39455404278966383,-0.05091789646368339
0.39733259238677415,0.07831710248563084
0.4001111419838844,0.05887793223552395
0.40288969158099475,-0.005940540174001925
0.40566824117810507,0.09604624026472637
0.4084467907752154,0.10997236882335594
0.41122534037232567,0.04149396713001779
0.414003889969436,0.1589385684774755
0.4167824395665463,0.15716747727316363
0.4195609891636566,0.16919319510476163
0.4223395387607669,0.18633072863153444
0.42511808835787723,0.13770193548029336
0.4278966379549875,0.23191360251917018
0.4306751875520978,0.31124388942136344
0.43345373714920815,0.34452691295257015
0.4362322867463185,0.35087694408670994
0.43901083634342875,0.34661145275562466
0.44178938594053907,0.36632754712967525
0.4445679355376494,0.46511007678744976
0.44734648513475966,0.4576365907060254
0.45012503473187,0.42327562931874146
0.4529035843289803,0.4287182230281997
0.45568213392609064,0.40014539982078345
0.4584606835232009,0.38137521004987635
0.46123923312031123,0.4142819387984775
0.46401778271742156,0.31947958535035764
0.4667963323145318,0.33098806901059036
0.46957488191164215,0.26481169936109766
0.4723534315087525,0.22098252973845076
0.4751319811058628,0.21233924666569753
0.47791053070297307,0.16391491962954807
0.4806890803000834,0.18955122196260146
0.4834676298971937,0.099650351996576
0.486246179494304,0.1369634645615719
0.4890247290914143,0.0617178614177794
0.49180327868852464,0.08859074027681244
0.49458182828563496,0.057902782655440875
0.49736037788274523,-0.031985237283671045
0.5001389274798556,0.00474987548929259
0.5029174770769659,-0.05012816503430087
0.5056960266740762,0.02137894736912545
0.5084745762711865,-0.0012812894109480878
0.5112531258682967,-0.01838774112499158
0.5140316754654071,-0.04560430937962412
0.5168102250625174,-0.06656815131874719
0.5195887746596277,-0.0004665456657482114
0.522367324256738,-0.002691160690110885
0.5251458738538484,0.042068811483295596
0.5279244234509587,-0.055489886021154344
0.5307029730480689,-0.024758309395460948
0.5334815226451792,-0.10722664266475239
0.5362600722422896,0.043534823912132516
0.5390386218393999,0.015342299960116487
0.5418171714365102,0.0072463828831031574
0.5445957210336205,-0.007713006749380849
0.5473742706307309,0.04508118411506736
0.5501528202278411,-0.023136750043836224
0.5529313698249514,0.0663593662369323
0.5557099194220617,-0.010532249310978523
0.558488469019172,-0.03651435920759042
0.5612670186162824,-0.03693494764068726
0.5640455682133927,0.015223903301547638
0.566824117810503,-0.06139162120852164
0.5696026674076132,0.039492479090804916
0.5723812170047236,-0.00267697343678184
0.5751597666018339,-0.007473365245664253
0.5779383161989442,-0.03110432121059851
0.5807168657960545,-0.03511717123251487
0.5834954153931649,0.010321402329965203
0.5862739649902752,0.031243996441943728
0.5890525145873854,-0.008705811683446463
0.5918310641844957,-0.03152040824705248
0.594609613781606,-0.033724408443904175
0.5973881633787164,-0.014075581561188438
0.6001667129758267,-0.03143854792835696
0.602945262572937,-0.050988996210524815
0.6057238121700472,0.04195947536694659
0.6085023617671576,-0.04560857321990988
0.6112809113642679,0.023785372677105877
0.6140594609613782,0.0023661441486057897
0.6168380105584885,0.04029773952835492
0.6196165601555989,-0.08915789416281862
0.6223951097527092,-0.06173297643195739
0.6251736593498194,0.053544909358489344
0.6279522089469297,-0.007583221258633695
0.63073075854404,0.0496489829157245
0.6335093081411504,0.00817977563215497
0.6362878577382607,0.014699233691573046
0.639066407335371,-0.0421203295160802
0.6418449569324813,-0.009682309269365641
0.6446235065295916,0.0068936676563983645
0.6474020561267019,-0.04205535180688442
0.6501806057238122,0.05684317565687874
0.6529591553209225,0.05896770612880479
0.6557377049180328,0.05099415525937019
0.6585162545151432,0.021748450523604683
0.6612948041122535,0.015961173490491858
0.6640733537093637,-0.04597368503835041
0.666851903306474,0.02808321100899879
0.6696304529035844,-0.03226997755333483
0.6724090025006947,-0.0386521569570231
0.675187552097805,0.0006213535165670168
0.6779661016949153,-0.02578118004425856
0.6807446512920257,-0.05260965345657327
0.6835232008891359,9.345879487265168e-05
0.6863017504862462,0.08556241953671564
0.6890803000833565,-0.022611700824064933
0.6918588496804668,0.009703883490754085
0.6946373992775772,-0.1193984459355662
0.6974159488746875,0.008912394859427282
0.7001944984717978,-0.034446841408365146
0.702973048068908,-0.0232870953819092
0.7057515976660184,0.06015143077857236
0.7085301472631287,0.02914883239410976
0.711308696860239,0.025469273108223393
0.7140872464573493,0.04629877288718603
0.7168657960544597,-0.08158527226710416
0.71964434565157,-0.019929352562810504
0.7224228952486802,0.009220054696504061
0.7252014448457905,0.08484352122463319
0.7279799944429008,-0.012714138354453737
0.7307585440400112,-0.02904502981669836
0.7335370936371215,-0.017577093132774085
0.7363156432342318,-0.009057963961161878
0.7390941928313421,-0.0065044367346768685
0.7418727424284524,-0.01594546645940974
0.7446512920255627,-0.023121080976500244
0.747429841622673,0.06529471650770875
0.7502083912197833,-0.028185809342334407
0.7529869408168937,-0.0437109539041372
0.755765490414004,-0.026052509594032346
0.7585440400111143,0.037806467117945886
0.7613225896082245,-0.08187601375196149
0.7641011392053348,-0.0024705092437852577
0.7668796888024452,-0.028808629315156892
0.7696582383995555,0.040042434079893975
0.7724367879966658,-0.02989416641840132
0.7752153375937761,0.007450453483007741
0.7779938871908865,0.021275591272593534
0.7807724367879967,-0.0067714179732926765
0.783550986385107,-0.03989362733304286
0.7863295359822173,-0.046216682608820385
0.7891080855793277,-0.00854985872419475
0.791886635176438,-0.043907124293700465
0.7946651847735483,-0.050094023910735884
0.7974437343706586,0.034561932478851996
0.8002222839677688,0.08115163826666924
0.8030008335648792,-0.002505561612965504
0.8057793831619895,-0.010830475829073519
0.8085579327590998,-0.00788116198857293
0.8113364823562101,-0.0671654080465041
0.8141150319533205,0.04107659433069712
0.8168935815504308,0.089660594592063
0.819672131147541,0.0061768637617512865
0.8224506807446513,0.022808628890098177
0.8252292303417617,0.003146317699494069
0.828007779938872,-0.010112363454254541
0.8307863295359823,-0.06155089423089712
0.8335648791330926,0.056237330496853775
0.8363434287302028,-0.0381927777207864
0.8391219783273132,-0.0006660173388901721
0.8419005279244235,0.08203971437621631
0.8446790775215338,-0.006244885212256448
0.8474576271186441,-0.029769658769901144
0.8502361767157545,-0.019780576181772546
0.8530147263128648,-0.008847898593535275
0.855793275909975,0.007652502009812842
0.8585718255070853,-0.028992576777403738
0.8613503751041957,-0.01298173103444966
0.864128924701306,-0.004567888787147863
0.8669074742984163,0.0054745946985759976
0.8696860238955266,0.02612550653546592
0.872464573492637,-0.05135103729668178
0.8752431230897472,0.01924972100075852
0.8780216726868575,-0.06343623278315662
0.8808002222839678,-0.04424599774614563
0.8835787718810781,-0.004630055486455597
0.8863573214781885,0.016369467149193906
0.8891358710752988,-0.04978048213904689
0.8919144206724091,0.00393671176560725
0.8946929702695193,0.020396698786355267
0.8974715198666297,-0.0007939969330252374
0.90025006946374,0.0011764671103980122
0.9030286190608503,-0.004023729262985319
0.9058071686579606,0.08768491519390935
0.908585718255071,0.0001322655312307382
0.9113642678521813,0.11952976613024871
0.9141428174492915,0.04548130067441917
0.9169213670464018,-0.0038166094675377454
0.9196999166435121,-0.045247017333091305
0.9224784662406225,0.05774019382392367
0.9252570158377328,0.004028071789961155
0.9280355654348431,-0.06289795218657532
0.9308141150319534,-0.02229079606196977
0.9335926646290637,-0.08140880378444879
0.936371214226174,0.058953149782501255
0.9391497638232843,-0.04109181831536194
0.9419283134203946,-0.054249155281587635
0.944706863017505,-0.09062531927532344
0.9474854126146153,-0.018796487371251794
0.9502639622117256,0.04933585528779929
0.9530425118088358,0.024601968544674856
0.9558210614059461,-0.00872427896326992
0.9585996110030565,0.01770045653480282
0.9613781606001668,-0.014857476293310816
0.9641567101972771,-0.05970857699567426
0.9669352597943874,0.0314499055121031
0.9697138093914978,-0.03446311555187912
0.972492358988608,-0.05214407572700404
0.9752709085857183,-0.015747581650827937
0.9780494581828286,-0.07179735524085136
0.980828007779939,-0.013359604199571806
0.9836065573770493,-0.01938818394250584
0.9863851069741596,-0.02990916913886897
0.9891636565712699,0.00118543870465789
0.9919422061683801,-0.03934030526328693
0.9947207557654905,-0.03184042198716641
0.9974993053626008,0.02300833271756104
1.000277854959711,-0.027439160483880266
1.0030564045568213,-0.049994636517823175
1.0058349541539318,-0.048154054438849764
1.008613503751042,-0.02940289892238566
1.0113920533481524,-0.03085475967194835
1.0141706029452626,0.00881048626207973
1.016949152542373,-0.07577708123596526
1.0197277021394833,0.058485867738842935
1.0225062517365935,0.07730735412886812
1.025284801333704,0.06183612880423171
1.0280633509308141,0.0032239456499411553
1.0308419005279246,0.006002417751605026
1.0336204501250348,0.04047440338505947
1.0363989997221452,0.0679507336425273
1.0391775493192554,0.041926399317169745
1.0419560989163656,0.07554698195274509
1.044734648513476,-0.03142757887557311
1.0475131981105863,-0.026797675901072737
1.0502917477076967,-0.011803077992740878
1.053070297304807,-0.006067685917152505
1.0558488469019174,-0.0965057005271782
1.0586273964990276,-0.019876295821411996
1.0614059460961378,-0.05177825588379984
1.0641844956932482,0.013243236891035829
1.0669630452903585,9.310836511354436e-05
1.069741594887469,-0.1245901901957204
1.072520144484579,-0.021222232010841304
1.0752986940816895,-0.014163791748217356
1.0780772436787998,0.016001752834937547
1.08085579327591,-0.013950828031629257
1.0836343428730204,0.001722473840696656
1.0864128924701306,7.09455407742543e-05
1.089191442067241,-0.05418939967247882
1.0919699916643513,-0.09389268345251121
1.0947485412614617,0.044277403268181754
1.097527090858572,-0.05413343598734022
1.1003056404556821,-0.002111461352863868
1.1030841900527926,-0.04668261599062848
1.1058627396499028,-0.016198627508158984
1.1086412892470132,0.00573436449532229
1.1114198388441234,0.03328563791997627
1.1141983884412339,0.019535730743063074
1.116976938038344,0.002781466545289195
1.1197554876354543,-0.036367072948266355
1.1225340372325647,-0.08652006170540968
1.125312586829675,-0.026722738783354683
1.1280911364267854,-0.03464262825660352
1.1308696860238956,-0.04316297639328149
1.133648235621006,-0.013184828184421307
1.1364267852181162,0.0034939603051352855
1.1392053348152265,-0.030604413196516286
1.141983884412337,0.003153086639769404
1.144762434009447,0.03874441064104985
1.1475409836065575,-0.12128015958106325
1.1503195332036678,0.059373746729570076
1.1530980828007782,0.05957826496333429
1.1558766323978884,0.004023765040029593
1.1586551819949986,-0.01727867473628878
1.161433731592109,-0.02470814671598789
1.1642122811892193,0.018736512060900268
1.1669908307863297,0.0018371662463588462
1.16976938038344,-0.07223117706367352
1.1725479299805504,0.10823368997758781
1.1753264795776606,-0.01240366449939752
1.1781050291747708,0.12163487772492808
1.1808835787718812,-0.021605432693962486
1.1836621283689914,0.026800025253987274
1.1864406779661019,0.05094092219626451
1.189219227563212,-0.009046421756198846
1.1919977771603223,0.07629780434664571
1.1947763267574327,0.028351462727966913
1.197554876354543,-0.05022800204486656
1.2003334259516534,0.01154764154215202
1.2031119755487636,-0.014271382425067605
1.205890525145874,0.051256082951129524
1.2086690747429842,-0.02985800738812749
1.2114476243400945,0.006553060781802244
1.214226173937205,0.004571322941025428
1.217004723534315,0.011016892096486583
1.2197832731314255,0.011654567258096845
1.2225618227285358,0.017105993429874403
1.2253403723256462,-0.007672748796996882
1.2281189219227564,0.03950488441408445
1.2308974715198666,-0.03095826065717174
1.233676021116977,-0.0019978142129926505
1.2364545707140873,-0.09768387480464738
1.2392331203111977,-0.02270539944772085
1.242011669908308,-0.04606882872690642
1.2447902195054183,0.017985936712330283
1.2475687691025286,0.011984499622736853
1.2503473186996388,-0.012761905204584178
1.2531258682967492,-0.042017106755407665
1.2559044178938594,0.031202272057342207
1.2586829674909699,0.01441494576496049
1.26146151708808,-0.0033024198098255022
1.2642400666851905,0.007422364110685843
1.2670186162823007,0.03192874206359818
1.269797165879411,0.0060328946426916365
1.2725757154765214,0.05824880259037655
1.2753542650736316,-0.008584315287169252
1.278132814670742,0.011314686263095381
1.2809113642678522,-0.016428046866847405
1.2836899138649627,0.025115009605059076
1.2864684634620729,0.008937863021968794
1.289247013059183,-0.03468303487660418
1.2920255626562935,0.004728405333412809
1.2948041122534037,0.03289762061963098
1.2975826618505142,-0.03651949177555243
1.3003612114476244,-0.017700245142366046
1.3031397610447348,0.042939186790188905
1.305918310641845,0.024199469617058014
1.3086968602389553,-0.0020136360316850913
1.3114754098360657,0.03156410357299226
1.314253959433176,0.0510468777601735
1.3170325090302863,0.0823753071149205
1.3198110586273966,0.016762943783334268
1.322589608224507,0.09327624046131237
1.3253681578216172,0.05762314222446195
1.3281467074187274,0.1653286312185372
1.3309252570158379,0.12837681192317682
1.333703806612948,0.19541567940892007
1.3364823562100585,0.23456617147880643
1.3392609058071687,0.20737580731243913
1.3420394554042792,0.22713521593231178
1.3448180050013894,0.3213428217526351
1.3475965545984996,0.29794753934564155
1.35037510419561,0.32917743196739296
1.3531536537927202,0.3507741654085728
1.3559322033898307,0.31609686461001424
1.3587107529869409,0.13886838772729168
1.3614893025840513,0.22688501071836348
1.3642678521811615,0.18859132995387834
1.3670464017782717,0.14688112839235426
1.3698249513753822,0.16781692401254997
1.3726035009724924,0.04268965348224982
1.3753820505696028,0.05162035394139644
1.378160600166713,0.06852488888035223
1.3809391497638235,0.008649080724247145
1.3837176993609337,0.08715939187290102
1.386496248958044,0.040200914730017225
1.3892747985551543,-0.006217487565608006
1.3920533481522646,0.01026542158645478
1.394831897749375,-0.022824276726548916
1.3976104473464852,-0.02549950068719114
1.4003889969435956,0.03027860826331604
1.4031675465407059,0.11979667304302849
1.405946096137816,0.2810764534099024
1.4087246457349265,0.43490704632436783
1.4115031953320367,0.7584456074451058
1.4142817449291472,1.1616067220716229
1.4170602945262574,1.4648452761830433
1.4198388441233678,1.5998387790216257
1.422617393720478,1.503593678186255
1.4253959433175882,1.155760807219854
1.4281744929146987,0.884595732406501
1.4309530425118089,0.47096567847000675
1.4337315921089193,0.2970692040325036
1.4365101417060295,0.13461329460177554
1.43928869130314,0.029489615723298404
1.4420672409002502,-0.0012175502669279584
1.4448457904973604,-0.05950063377687469
1.4476243400944708,-0.08985850315510938
1.450402889691581,-0.055677164074800056
1.4531814392886915,-0.01490573054009216
1.4559599888858017,0.04394174360292343
1.4587385384829121,0.01255118265342226
1.4615170880800223,-0.018627857819687805
1.4642956376771326,0.0019521398692297339
1.467074187274243,0.030066878827907186
1.4698527368713532,0.013743220094890762
1.4726312864684636,0.019979477818801678
1.4754098360655739,0.07426062985291619
1.4781883856626843,0.060680482616957965
1.4809669352597945,0.06665708631798667
1.4837454848569047,0.032781813854795866
1.4865240344540152,0.023813724864230144
1.4893025840511254,-0.05477432244778668
1.4920811336482358,0.03380404668538439
1.494859683245346,-0.050556125411474584
1.4976382328424565,-0.0006132879138118355
1.5004167824395667,0.0275498783317499
1.5031953320366769,0.051905230039407294
1.5059738816337873,-0.011566489822252463
1.5087524312308975,-0.022656350640130617
1.511530980828008,-0.050305480748179136
1.5143095304251182,0.10749277910690583
1.5170880800222286,0.03661634663586244
1.5198666296193388,-0.016777279363009334
1.522645179216449,-0.02314145957730846
1.5254237288135595,-0.03902888686672656
1.5282022784106697,0.028804906614036126
1.5309808280077801,-0.018077456281181514
1.5337593776048903,-0.061454492732140056
1.5365379272020008,0.05087110069407795
1.539316476799111,0.007971509434259795
1.5420950263962212,0.0034882243200629807
1.5448735759933316,-0.048852807729761416
1.5476521255904419,-0.025433402772446226
1.5504306751875523,0.022497067735064057
1.5532092247846625,-0.05680705435207478
1.555987774381773,0.04115878514249568
1.5587663239788832,-0.01566716737341108
1.5615448735759934,-0.01547970898623311
1.5643234231731038,-0.10240466546166696
1.567101972770214,0.0630912155520519
1.5698805223673244,-0.04088470410773704
1.5726590719644347,0.009783039567048776
1.575437621561545,0.013311039016577018
1.5782161711586553,0.06492438982182594
1.5809947207557655,0.03593390044982968
1.583773270352876,0.06372601084309451
1.5865518199499862,-0.023634181423918217
1.5893303695470966,-0.003961375122255877
1.5921089191442068,0.010903796380416013
1.5948874687413173,0.04422044174572379
1.5976660183384275,-0.02392347281007396
1.6004445679355377,0.013162776247721615
1.6032231175326481,-0.009754388588694818
1.6060016671297583,0.056749345488262354
1.6087802167268688,0.054761109180459566
1.611558766323979,0.00889103775859236
1.6143373159210894,0.09683549661334961
1.6171158655181996,0.16154045100903078
1.6198944151153098,0.14810151527996845
1.6226729647124203,0.17928862613010713
1.6254515143095305,0.20868824892300353
1.628230063906641,0.2995811942380945
1.6310086135037511,0.17855956554062946
1.6337871631008616,0.26563465845797263
1.6365657126979718,0.36334575918853645
1.639344262295082,0.33679887442434453
1.6421228118921924,0.34680533058437263
1.6449013614893027,0.4698550414808821
1.647679911086413,0.4465844076713429
1.6504584606835233,0.42860030535979443
1.6532370102806337,0.39348538424544766
1.656015559877744,0.3395300365414392
1.6587941094748542,0.3561611218109355
1.6615726590719646,0.3448124655312723
1.6643512086690748,0.39001224250069894
1.6671297582661853,0.2557535834560686
1.6699083078632955,0.22078480259244343
1.6726868574604057,0.24014597646856503
1.6754654070575161,0.22983826491241569
1.6782439566546263,0.18374048258830328
1.6810225062517368,0.11322600485914378
1.683801055848847,0.1207889379414291
1.6865796054459574,0.10406881524319318
1.6893581550430676,0.10910053470773363
1.6921367046401778,0.058927958145480436
1.6949152542372883,0.0020386757169640543
1.6976938038343985,0.007799422299007694
1.700472353431509,0.04247705003423171
1.7032509030286191,-0.08801196295013583
1.7060294526257296,0.0894195748177875
1.7088080022228398,-0.04399398297917226
1.71158655181995,0.045777598014205084
1.7143651014170604,-0.08351870284494162
1.7171436510141707,-0.0036624592423065263
1.719922200611281,-0.023881330141631123
1.7227007502083913,0.0008515186038660549
1.7254792998055017,-0.029118191719319172
1.728257849402612,0.030317668005831775
1.7310363989997222,-0.028966993256781964
1.7338149485968326,0.09868263480828893
1.7365934981939428,-0.007569520121763235
1.7393720477910533,0.004456041064080668
1.7421505973881635,0.03152190794189692
1.744929146985274,-0.04062946154959944
1.7477076965823841,-0.02420284996073949
1.7504862461794943,-0.05047281345594141
1.7532647957766048,-0.05523441702486162
1.756043345373715,-0.0031046904682264552
1.7588218949708254,-0.015333286349122652
1.7616004445679356,0.030174258968891927
1.764378994165046,0.0032894864609620622
1.7671575437621563,-0.05828145237696192
1.7699360933592665,0.05071697002178233
1.772714642956377,0.04014718022045556
1.7754931925534871,0.06768216315964225
1.7782717421505976,0.03975351550572799
1.7810502917477078,0.05677274749942593
1.7838288413448182,0.022596726066246606
1.7866073909419284,0.07342597560695371
1.7893859405390387,0.05563430555986376
1.792164490136149,0.03242358997472232
1.7949430397332593,-0.002197404255512421
1.7977215893303697,-0.047118428047577154
1.80050013892748,-0.03328303169457235
1.8032786885245904,0.06425837524858995
1.8060572381217006,0.045637280536869884
1.8088357877188108,-0.04674748533012525
1.8116143373159213,-0.013714376651524404
1.8143928869130315,-0.030296376003585576
1.817171436510142,-0.00858844950650818
1.8199499861072521,-0.004334802414831589
1.8227285357043626,0.006696543141153062
1.8255070853014728,-0.0012519048227410648
1.828285634898583,0.06025355211277911
1.8310641844956934,-0.011017904839005692
1.8338427340928036,-0.06362375559927885
1.836621283689914,-0.00617128899196712
1.8393998332870243,-0.032806183806156325
1.8421783828841347,-0.06910523378416024
1.844956932481245,-0.07532922552238387
1.8477354820783551,0.04392516782762906
1.8505140316754656,-0.006565965611513368
1.8532925812725758,0.0018578603360184056
1.8560711308696862,-0.012194867907446661
1.8588496804667964,-0.0026267558973245815
1.8616282300639069,0.00510775476271543
1.864406779661017,-0.013348271286572304
1.8671853292581273,-0.015940710534502568
1.8699638788552377,0.04260852409848864
1.872742428452348,0.018531046774515204
1.8755209780494584,0.01795955640594169
1.8782995276465686,-0.07253193328887445
1.881078077243679,-0.037288005901502476
1.8838566268407893,0.04772653043876366
1.8866351764378995,-0.03972995227766589
1.88941372603501,0.0415495017093821
1.8921922756321201,-0.08253451445505784
1.8949708252292305,0.048039935663167145
1.8977493748263408,-0.020528453092817613
1.9005279244234512,-0.04469860870145146
1.9033064740205614,-0.0027925782442220336
1.9060850236176716,0.029634361187011626
1.908863573214782,0.02873544320062814
1.9116421228118923,-0.0016748555917605755
1.9144206724090027,0.0032644784149152757
1.917199222006113,-0.032168989956528976
1.9199777716032234,0.017312164316770434
1.9227563212003336,-0.013510929171025454
1.9255348707974438,-0.0018809136688455
1.9283134203945542,0.044331101298431534
1.9310919699916644,-0.003571042173792269
1.9338705195887749,-0.044259877574353616
1.936649069185885,-0.054013987746880335
1.9394276187829955,0.07849799631140723
1.9422061683801057,0.06419065519673199
1.944984717977216,0.04312707993239046
1.9477632675743264,0.01734613340730789
1.9505418171714366,-0.0003578947995584045
1.953320366768547,0.022122260636373205
1.9560989163656572,-0.02116276152826612
1.9588774659627677,0.06384689267322396
1.961656015559878,-0.021786900936686473
1.964434565156988,-0.06387620409903288
1.9672131147540985,-0.001690382883123084
1.9699916643512088,0.0216453777570356
1.9727702139483192,-0.0071599439447573585
1.9755487635454294,-0.018954137248650985
1.9783273131425398,-0.015145722462756086
1.98110586273965,0.053169503441309475
1.9838844123367603,0.029609901753139215
1.9866629619338707,0.022615627419168935
1.989441511530981,-0.0030968580635837724
1.9922200611280914,0.009129905063603947
1.9949986107252016,-0.0022751662367634603
1.997777160322312,-0.04449013846390485
2.000555709919422,0.017001242767477043
2.0033342595165324,-0.04068546409588391
2.0061128091136426,0.011345420651986179
2.0088913587107533,-0.01803053744812057
2.0116699083078635,0.04628503227046481
2.0144484579049737,-0.06961798940391252
2.017227007502084,-0.07680701815290633
2.020005557099194,-0.024425173688138613
2.022784106696305,0.09080114338727827
2.025562656293415,0.006091226979557043
2.0283412058905252,-0.037363168640774595
2.0311197554876355,0.0040121030065561345
2.033898305084746,0.026538489277954373
2.0366768546818563,0.04561590352692869
2.0394554042789665,0.025081601604785276
2.0422339538760768,-0.04843549172031752
2.045012503473187,0.026782592204391754
2.0477910530702976,-0.060156349502409064
2.050569602667408,-0.06323209940795625
2.053348152264518,0.05671534792646992
2.0561267018616283,0.0072416693971355415
2.0589052514587385,-0.023503419511354953
2.061683801055849,-0.010764017948588589
2.0644623506529594,0.0026632336716846013
2.0672409002500696,0.007383615711713255
2.07001944984718,-0.026378563154641137
2.0727979994442904,0.0507159326889404
2.0755765490414007,-0.015796919092647
2.078355098638511,0.03951381054631468
2.081133648235621,0.06209859075338042
2.0839121978327313,-0.061081210407426444
2.086690747429842,0.012197925719558434
2.089469297026952,0.06168360109939862
2.0922478466240624,-0.017758902328413147
2.0950263962211726,0.0010695350841117513
2.097804945818283,0.050558779104310635
2.1005834954153935,0.040611854371299286
2.1033620450125037,0.06512203054142848
2.106140594609614,0.038558256934000175
2.108919144206724,-0.05129370273551184
2.1116976938038348,0.035990661112382916
2.114476243400945,0.03914613338185048
2.117254792998055,-0.010155601611700165
2.1200333425951654,-0.030467777761074614
2.1228118921922756,-0.08244886769208548
2.1255904417893863,0.01855240768030924
2.1283689913864965,-0.046268918697743605
2.1311475409836067,0.022911283428358808
2.133926090580717,-0.019245568817136172
2.136704640177827,-0.03610663996065943
2.139483189774938,-0.04672718602792803
2.142261739372048,0.036566560659193684
2.145040288969158,-0.025425737839964522
2.1478188385662684,-0.017073539887188707
2.150597388163379,-0.04315123632280874
2.1533759377604893,0.027275827510545993
2.1561544873575995,-0.07469276188669849
2.1589330369547097,-0.007775658127734512
2.16171158655182,0.006787340667775603
2.1644901361489306,-0.003722569021249558
2.167268685746041,-0.035813117215076073
2.170047235343151,-0.006982562535451939
2.1728257849402612,0.004025602774834803
2.1756043345373715,0.00850615356776803
2.178382884134482,-0.05884214430850438
2.1811614337315923,0.04604009744797253
2.1839399833287025,-0.023615232510782673
2.1867185329258128,0.02145447282350474
2.1894970825229234,0.0668632821392013
2.1922756321200336,0.01429541688762684
2.195054181717144,-0.04425163593088669
2.197832731314254,-0.0034609764497033715
2.2006112809113643,-0.02990203686937404
2.203389830508475,-0.009146801401699996
2.206168380105585,0.0453260245833346
2.2089469297026953,-0.062334252038714566
2.2117254792998056,0.002587750603034392
2.2145040288969158,0.057152134478682726
2.2172825784940264,0.04712094462454327
2.2200611280911366,0.03606196658278381
2.222839677688247,-0.0331871539902585
2.225618227285357,0.005696521273114826
2.2283967768824677,0.04498134293110345
2.231175326479578,-0.034307965541721705
2.233953876076688,0.006354139055331477
2.2367324256737984,0.019845950166727834
2.2395109752709086,-0.014673577041969752
2.2422895248680192,0.06151950426191815
2.2450680744651295,0.09193675479921887
2.2478466240622397,-0.06549365816446659
2.25062517365935,0.04264030396982906
2.25340372325646,-0.031156408935184742
2.2561822728535708,0.010562496910121703
2.258960822450681,-0.004843224742044946
2.261739372047791,-0.06995902549856224
2.2645179216449014,0.03138411837572972
2.267296471242012,0.0528004679682113
2.2700750208391223,0.0031526611289509204
2.2728535704362325,-0.016221438185695453
2.2756321200333427,0.006399888123039772
2.278410669630453,-0.02249798410070223
2.2811892192275636,-0.016881595697512877
2.283967768824674,-0.020075872535577327
2.286746318421784,-0.029821005463013996
2.289524868018894,0.03790462689103807
2.2923034176160044,0.03316093965678261
2.295081967213115,-0.06237597738435687
2.2978605168102253,-0.0006225874560627398
2.3006390664073355,0.019476826391697438
2.3034176160044457,0.03760373481517108
2.3061961656015564,-0.0397015654853113
2.3089747151986666,0.03498482400689829
2.311753264795777,-0.06663505468651977
2.314531814392887,0.007305809008216496
2.3173103639899972,-0.014732513975216155
2.320088913587108,0.0006097267911368006
2.322867463184218,-0.02585635982734224
2.3256460127813283,-0.06293423281238732
2.3284245623784385,0.0077629451669063996
2.3312031119755487,-0.034427760290258944
2.3339816615726594,0.0015661400024070153
2.3367602111697696,0.05934066230101841
2.33953876076688,-0.020177688786163103
2.34231731036399,0.02747723853735125
2.3450958599611007,-0.024032315568049013
2.347874409558211,-0.08437672467875787
2.350652959155321,0.01085903198457477
2.3534315087524313,-0.00803430990620874
2.3562100583495416,0.0066532211546623185
2.358988607946652,0.08257824150570557
2.3617671575437624,0.08318329495608065
2.3645457071408726,-0.062466397711901864
2.367324256737983,0.0030917078240630725
2.370102806335093,0.004074953630749091
2.3728813559322037,0.03471078799475723
2.375659905529314,0.026502475795813517
2.378438455126424,-0.008196514330415619
2.3812170047235344,0.03823242935054864
2.3839955543206446,0.03645242803201923
2.3867741039177552,0.025357113260474008
2.3895526535148655,-0.03681576684886133
2.3923312031119757,-0.019364569506133144
2.395109752709086,0.06443287082440309
2.3978883023061965,-0.0427436725426053
2.4006668519033068,0.06908542513279788
2.403445401500417,-0.007181567554238808
2.406223951097527,-0.005822755301276417
2.4090025006946374,0.0029387198836842024
2.411781050291748,-0.02684113754454909
2.4145595998888583,0.006714315365837053
2.4173381494859685,0.021822939244016806
2.4201166990830787,-0.012289719013244025
2.422895248680189,-0.01798489533968793
2.4256737982772996,0.08765526204372767
2.42845234787441,-0.027857140604601528
2.43123089747152,-0.01003581210611531
2.43400944706863,0.006079726444507524
2.436787996665741,-0.018588905618436534
2.439566546262851,-0.04439490222713508
2.4423450958599613,0.021386295109743585
2.4451236454570715,0.009021429211341303
2.4479021950541817,-0.04442795259614999
2.4506807446512924,-0.0252463279977054
2.4534592942484026,-0.049909436538814245
2.456237843845513,0.027664354237226022
2.459016393442623,0.03095134524981802
2.4617949430397332,0.005092389316540548
2.464573492636844,0.02986178053817205
2.467352042233954,0.03813952849503242
2.4701305918310643,0.007571354990980082
2.4729091414281745,0.05212938406090378
2.475687691025285,0.03674146877997122
2.4784662406223954,0.05061778997635254
2.4812447902195056,-0.07613652384718216
2.484023339816616,0.003126348670124286
2.486801889413726,0.010935597723475961
2.4895804390108367,0.03175843649494614
2.492358988607947,-0.054788332372304654
2.495137538205057,0.05396737161810662
2.4979160878021673,0.011094352044148404
2.5006946373992776,-0.011140831433449103
2.503473186996388,0.032131793006798075
2.5062517365934984,0.06061367755055621
2.5090302861906086,0.014009588188081939
2.511808835787719,0.025323391838711053
2.5145873853848295,-0.022978655546028733
2.5173659349819397,0.0055613480490544764
2.52014448457905,0.10689200140165701
2.52292303417616,0.027696288457046074
2.5257015837732704,0.07579262668026363
2.528480133370381,0.1762470489822512
2.5312586829674912,0.12479780209880166
2.5340372325646014,0.15770669260351916
2.5368157821617117,0.1919812454440236
2.539594331758822,0.27179966882153817
2.5423728813559325,0.25659057329741425
2.5451514309530427,0.3014454567743557
2.547929980550153,0.2551986060158006
2.550708530147263,0.321123626163518
2.553487079744374,0.29326947975691703
2.556265629341484,0.26860733358863526
2.5590441789385943,0.22805985537777534
2.5618227285357045,0.18431642998263448
2.5646012781328147,0.21138569139113333
2.5673798277299253,0.14524492493360774
2.5701583773270356,0.1469019674943701
2.5729369269241458,0.13633802134934475
2.575715476521256,0.08610365267211542
2.578494026118366,0.09915300301326824
2.581272575715477,0.04742358328002751
2.584051125312587,0.09082730355293488
2.5868296749096973,0.04512381399138353
2.5896082245068075,-0.00030419259564168355
2.592386774103918,-0.027149918609781463
2.5951653237010284,0.022722294417212904
2.5979438732981386,0.0691286440800673
2.600722422895249,0.01175276158325065
2.603500972492359,0.13192247444695243
2.6062795220894697,0.22303671740163644
2.60905807168658,0.45178497925373207
2.61183662128369,0.8457514403739472
2.6146151708808003,1.2072803450928944
2.6173937204779105,1.509093741005667
2.620172270075021,1.579891800737839
2.6229508196721314,1.416273153825427
2.6257293692692416,1.1367292207820427
2.628507918866352,0.7725062083682582
2.6312864684634625,0.359833005120502
2.6340650180605727,0.17857929936359968
2.636843567657683,0.1995147411159653
2.639622117254793,0.042435530453959036
2.6424006668519033,-0.010718788827821263
2.645179216449014,0.03758216824228655
2.647957766046124,-0.013074553617470393
2.6507363156432344,-0.01934713063790711
2.6535148652403446,0.008686197393658281
2.656293414837455,0.04154380287786802
2.6590719644345655,0.0013803537445583722
2.6618505140316757,0.05024277159457439
2.664629063628786,-0.021871923019929854
2.667407613225896,-0.04470141464752308
2.670186162823007,0.03955364973997119
2.672964712420117,0.04719990745672388
2.6757432620172272,0.010886354699999464
2.6785218116143374,0.023410371272696157
2.6813003612114477,0.05640209642847491
2.6840789108085583,-0.04580204834358555
2.6868574604056685,0.0071335889548727344
2.6896360100027787,-0.10685029319222238
2.692414559599889,0.009953230616742362
2.695193109196999,-0.04807252595096102
2.69797165879411,0.011638064370978154
2.70075020839122,-0.028787673359977072
2.7035287579883303,-0.03877018728834047
2.7063073075854405,0.0006821061954209774
2.709085857182551,-0.046957467827327216
2.7118644067796613,-0.022107864264288034
2.7146429563767716,-0.01925114627423973
2.7174215059738818,0.014300547918495563
2.720200055570992,0.05832809517903936
2.7229786051681026,0.0030822335584461008
2.725757154765213,-0.05765316471917801
2.728535704362323,0.04799253956860726
2.7313142539594333,-0.022606874586339205
2.7340928035565435,-0.013709940840766634
2.736871353153654,0.015162439723677026
2.7396499027507644,0.03109795326857187
2.7424284523478746,-0.024329314570119134
2.745207001944985,0.018439974625658852
2.7479855515420955,-0.12778179230208742
2.7507641011392057,0.10911584360256903
2.753542650736316,0.008594871578518381
2.756321200333426,-0.07762141526934314
2.7590997499305363,0.008599279085834457
2.761878299527647,0.002834334202631543
2.764656849124757,-0.06232321006392341
2.7674353987218674,0.005004258844671015
2.7702139483189776,-0.03921502258215605
2.772992497916088,-0.03079600014989955
2.7757710475131985,-0.0623895782749277
2.7785495971103087,0.031067272475658228
2.781328146707419,-0.00036471935157544703
2.784106696304529,-0.002496917255172834
2.7868852459016398,0.03553913017138802
2.78966379549875,-0.02475439908443335
2.79244234509586,0.03920532578505696
2.7952208946929704,-0.01013616586992976
2.7979994442900806,-0.017593252622925278
2.8007779938871913,0.029349743696562947
2.8035565434843015,-0.013550634535307346
2.8063350930814117,0.11317191318839648
2.809113642678522,0.08643366666527139
2.811892192275632,0.14237536476061374
2.814670741872743,0.2156633222840872
2.817449291469853,0.182837168622148
2.8202278410669632,0.1630892417349017
2.8230063906640734,0.2101190239060382
2.825784940261184,0.22288871492205803
2.8285634898582943,0.2763276803222341
2.8313420394554045,0.22854733260969354
2.8341205890525147,0.30251949000680584
2.836899138649625,0.36306369808241046
2.8396776882467356,0.30550028985722316
2.842456237843846,0.36454808035789377
2.845234787440956,0.39130948657367276
2.8480133370380663,0.44949849732247193
2.8507918866351765,0.4078735439971954
2.853570436232287,0.38134442120588624
2.8563489858293973,0.3390187146270509
2.8591275354265075,0.4071979463610694
2.8619060850236178,0.39959965882415727
2.864684634620728,0.3232202992037227
2.8674631842178386,0.2879895778966338
2.870241733814949,0.25389241436366017
2.873020283412059,0.223340319070817
2.8757988330091693,0.19539159027079522
2.87857738260628,0.1473189330948535
2.88135593220339,0.10553418923926874
2.8841344818005004,0.17243812838706643
2.8869130313976106,0.18753959386422353
2.889691580994721,0.0327486580770973
2.8924701305918314,0.0824451383710621
2.8952486801889417,0.09560696837683871
2.898027229786052,0.04461618405343401
2.900805779383162,0.08522699440002351
2.9035843289802723,0.03852207101524575
2.906362878577383,0.010426826493468277
2.909141428174493,-0.06705391243092815
2.9119199777716034,0.02838624553951583
2.9146985273687136,-0.010238654687558002
2.9174770769658243,-0.014140233428283633
2.9202556265629345,0.006235164282074554
2.9230341761600447,-0.021306746258294342
2.925812725757155,-0.036152575099343436
2.928591275354265,-0.030613403800772224
2.9313698249513758,-0.04688658056799939
2.934148374548486,-0.021953698852062973
2.936926924145596,-0.0671541130855846
2.9397054737427064,0.011173943261134049
2.9424840233398166,-0.01292563416172614
2.9452625729369273,-0.0050359695310306036
2.9480411225340375,0.0005666059781072733
2.9508196721311477,0.01585710688052272
2.953598221728258,0.007636270513607517
2.9563767713253686,-0.0088303955124649
2.959155320922479,0.09310033886461129
2.961933870519589,-0.05185652664274981
2.964712420116699,-0.0465820776833341
2.9674909697138094,0.01326011987337415
2.97026951931092,0.05533769235581622
2.9730480689080303,0.03215372743703491
2.9758266185051405,0.04089720456915626
2.9786051681022507,-0.04893357681279029
2.981383717699361,0.004356777747496613
2.9841622672964716,0.014692331455175161
2.986940816893582,-0.0039467467499989545
2.989719366490692,-0.006693250272431349
2.9924979160878022,-0.06005786500870157
2.995276465684913,0.003783196851612959
2.998055015282023,0.018362656293153198
3.0008335648791333,-0.00013561778200005606
3.0036121144762435,0.056114443351782645
3.0063906640733538,0.00994706970868964
3.0091692136704644,-0.008125983689467962
3.0119477632675746,0.0033687292259216486
3.014726312864685,-0.022378339342065245
3.017504862461795,0.04235907093603184
3.0202834120589053,0.009834897148502544
3.023061961656016,-0.02512446062039605
3.025840511253126,0.07842685159679809
3.0286190608502364,-0.01594497985877022
3.0313976104473466,-0.0061174476823792024
3.0341761600444572,-0.010382165031182595
3.0369547096415674,0.01857116125255435
3.0397332592386777,0.019650765191075434
3.042511808835788,0.03479735131895825
3.045290358432898,0.0015218606329674748
3.0480689080300087,0.06904459803063785
3.050847457627119,0.06580011063095273
3.053626007224229,-0.026129633835798555
3.0564045568213394,0.035344083227224744
3.0591831064184496,-0.043859401083262715
3.0619616560155603,-0.031254197207045004
3.0647402056126705,0.014759958296880569
3.0675187552097807,-0.03645865062453963
3.070297304806891,-0.02928488964973205
3.0730758544040016,0.010452431519731343
3.0758544040011118,-0.0414387445665313
3.078632953598222,0.031113452821764077
3.081411503195332,-0.060975817147260775
3.0841900527924424,0.04756794578791554
3.086968602389553,-0.04145260834015711
3.0897471519866633,0.014559217919440539
3.0925257015837735,-0.023804993106087635
3.0953042511808837,0.011612383610886463
3.098082800777994,0.08037335297847083
3.1008613503751046,-0.04452937156043848
3.103639899972215,-0.06886716396220705
3.106418449569325,-0.012171211941119996
3.109196999166435,0.02814118931768496
3.111975548763546,-0.055655484287224444
3.114754098360656,0.018343847086512433
3.1175326479577663,0.08348253637629442
3.1203111975548765,0.004028656160609023
3.1230897471519867,0.04453687732856263
3.1258682967490974,-0.05480578630779693
3.1286468463462076,0.08632040790856092
3.131425395943318,0.08543301646831292
3.134203945540428,-0.038324329284575846
3.1369824951375382,0.041305191963399615
3.139761044734649,-0.030765432237149965
3.142539594331759,-0.010456294426006018
3.1453181439288693,0.06909619848313697
3.1480966935259795,-0.008678128469394997
3.15087524312309,-0.03303537312308391
3.1536537927202004,-0.007059779518350093
3.1564323423173106,-0.01890904646140697
3.159210891914421,0.06175686862413053
3.161989441511531,0.06305306061514074
3.1647679911086417,0.0008882759023972763
3.167546540705752,-0.03686238170628884
3.170325090302862,0.025529912801975946
3.1731036398999724,-0.0668272298914366
3.1758821894970826,0.059856345404844066
3.178660739094193,-0.05390810718223407
3.1814392886913034,0.014429245948978717
3.1842178382884136,0.033350545492238544
3.186996387885524,0.06368774600983466
3.1897749374826345,-0.020504372099375487
3.1925534870797447,0.012075273695305009
3.195332036676855,0.08076277672592827
3.198110586273965,0.021166127632248958
3.2008891358710754,-0.025106750344413103
3.203667685468186,0.034398205285505724
3.2064462350652962,0.033456963301329475
3.2092247846624065,-0.01780140880852756
3.2120033342595167,-0.02692551294102003
3.214781883856627,0.015728140882427098
3.2175604334537375,-0.007009195186050817
3.2203389830508478,-0.011305149494547037
3.223117532647958,0.0032671733056097206
3.225896082245068,-0.004324204065976512
3.228674631842179,-0.007819458223942494
3.231453181439289,-0.05267510288453262
3.2342317310363993,0.030084946906369522
3.2370102806335095,-0.06426912723231076
3.2397888302306197,0.08468222476344994
3.2425673798277304,0.05110464196395226
3.2453459294248406,0.02675481507172261
3.248124479021951,-0.01940209316566138
3.250903028619061,-0.03533707776000417
3.253681578216171,0.015253663349261816
3.256460127813282,0.02126375589817018
3.259238677410392,-0.008326581476796949
3.2620172270075023,-0.00343536673178321
3.2647957766046125,-0.015882488068639504
3.267574326201723,0.020629318077399744
3.2703528757988334,0.06630833362521761
3.2731314253959436,-0.06623962192080322
3.275909974993054,0.0395271604678402
3.278688524590164,-0.007983053111288912
3.2814670741872747,-0.017203864051070692
3.284245623784385,0.014298303611511432
3.287024173381495,0.03504548245836047
3.2898027229786053,0.08013497578919779
3.2925812725757155,-0.01364404360160302
3.295359822172826,-0.01563075508500931
3.2981383717699364,-0.019306551539465363
3.3009169213670466,-0.004111342211482015
3.303695470964157,-0.005313795394020315
3.3064740205612675,0.020581499148613368
3.3092525701583777,-0.05260543888926227
3.312031119755488,-0.009948669839728043
3.314809669352598,-0.05910444714828603
3.3175882189497083,-0.007327577673812468
3.320366768546819,-0.005632942829486065
3.323145318143929,-0.010734009803800418
3.3259238677410394,0.042119107780154284
3.3287024173381496,0.09500774717514839
3.33148096693526,0.0749709975051178
3.3342595165323705,0.046519560616941506
3.3370380661294807,0.033234540895435295
3.339816615726591,0.044588746120502155
3.342595165323701,-0.0552062972116459
3.3453737149208114,0.03457402131077345
3.348152264517922,-0.018058901669578867
3.3509308141150322,-0.051705351556845705
3.3537093637121425,0.05570771422164733
3.3564879133092527,0.012138731549291452
3.3592664629063633,0.09686218636789053
3.3620450125034735,0.016996002616988533
3.3648235621005838,0.032536202478763994
3.367602111697694,-0.03130718387252672
3.370380661294804,-0.0207632903993094
3.373159210891915,-0.015874673924939516
3.375937760489025,0.015444371978366622
3.3787163100861353,-0.0046869704986790784
3.3814948596832455,0.01133037526203643
3.3842734092803557,0.07402925467184922
3.3870519588774664,-0.04256819796863967
3.3898305084745766,-0.017303206090801194
3.392609058071687,0.03374998465041649
3.395387607668797,0.0317617508288944
3.3981661572659076,-0.0974893292875579
3.400944706863018,-0.005133347399665556
3.403723256460128,-0.05515014710956079
3.4065018060572383,0.05170958100778746
3.4092803556543485,-0.0030409710533918274
3.412058905251459,0.024958617483839905
3.4148374548485694,-0.006724775745993129
3.4176160044456796,-0.00954297059256548
3.42039455404279,0.07065974435708279
3.4231731036399,-0.006745692560935272
3.4259516532370107,0.026556151537625167
3.428730202834121,-0.0009236938110398829
3.431508752431231,0.04369666364980066
3.4342873020283413,-0.011306745832985701
3.437065851625452,0.09221028444480314
3.439844401222562,0.014728610461033288
3.4426229508196724,-0.05783276546266948
3.4454015004167826,-0.048832805827342084
3.448180050013893,0.08074516979953213
3.4509585996110035,-0.0018746291522934366
3.4537371492081137,-0.011678623554707926
3.456515698805224,-0.09334352528908682
3.459294248402334,0.01675971776282589
3.4620727979994443,-0.028320892636714796
3.464851347596555,-0.021798831955146675
3.467629897193665,-0.00885802748309817
3.4704084467907754,-0.026543618712938574
3.4731869963878856,0.018068137785759508
3.4759655459849963,-0.0033414387053215754
3.4787440955821065,0.059361289864023094
3.4815226451792167,-0.010492560940525008
3.484301194776327,-0.03604517387575627
3.487079744373437,-0.024271994299729528
3.489858293970548,-0.004710592784452602
3.492636843567658,0.0012704673010685704
3.4954153931647682,0.03946064570571481
3.4981939427618784,-0.060561656121285605
3.5009724923589887,0.020127006437979836
3.5037510419560993,-0.023372835989129776
3.5065295915532095,-0.026781633385983133
3.5093081411503197,-0.018604792578779714
3.51208669074743,-0.07279723513060178
3.5148652403445406,-0.002934629008768757
3.517643789941651,-0.005852859058329395
3.520422339538761,0.029349226642717625
3.5232008891358713,-0.057067504237344996
3.5259794387329815,-0.028277564399483018
3.528757988330092,0.052664345025602036
3.5315365379272023,0.033496977081126075
3.5343150875243126,0.04570852952463159
3.5370936371214228,0.01375304527183808
3.539872186718533,0.03056075199780681
3.5426507363156436,0.045750653695352216
3.545429285912754,-0.08371119583260642
3.548207835509864,-0.06677611419791403
3.5509863851069743,0.01776886567686842
3.553764934704085,0.07095864644178643
3.556543484301195,0.043544664300222725
3.5593220338983054,-0.0103398799149986
3.5621005834954156,0.06592625793198982
3.564879133092526,0.06678914420189751
3.5676576826896365,-0.008007380257725858
3.5704362322867467,0.05677752334173364
3.573214781883857,-0.03956520136958962
3.575993331480967,0.003149371367994039
3.5787718810780773,0.04261539997767403
3.581550430675188,-0.03232762005503789
3.584328980272298,-0.012956898863926541
3.5871075298694084,-0.02737151345821012
3.5898860794665186,-0.01428004277177332
3.5926646290636293,-0.018559127266437343
3.5954431786607395,0.002221486027228113
3.5982217282578497,0.04266388805764879
3.60100027785496,0.006716378974166079
3.60377882745207,0.07309298705785552
3.606557377049181,-0.028505633455954676
3.609335926646291,-0.00783131690869813
3.612114476243401,0.02363365872156478
3.6148930258405114,-0.041023482853173907
3.6176715754376216,0.017996046482324172
3.6204501250347323,0.06404366056357724
3.6232286746318425,-0.001026978384518208
3.6260072242289527,-0.040770681359252166
3.628785773826063,0.02789726890691718
3.6315643234231736,0.027866447062655172
3.634342873020284,0.03398274746380338
3.637121422617394,-0.011353855784807175
3.6398999722145042,0.03773981395067375
3.6426785218116144,-0.02179676343813589
3.645457071408725,0.008989497538819781
3.6482356210058353,-0.05613285141468836
3.6510141706029455,-0.04724064639287363
3.6537927202000557,-0.023103766902672455
3.656571269797166,0.02582485681914758
3.6593498193942766,0.02934106149444222
3.662128368991387,0.07012031312947196
3.664906918588497,0.004859997243527936
3.6676854681856073,-0.01601635880554861
3.670464017782718,-0.03226907737484942
3.673242567379828,0.07103386139009718
3.6760211169769383,0.05414724181675339
3.6787996665740486,-0.03395409766613449
3.6815782161711588,0.0147107132178088
3.6843567657682694,0.04600317022884543
3.6871353153653796,0.02595546893907505
3.68991386496249,0.011243319097778062
3.6926924145596,-0.040855093877467025
3.6954709641567103,-0.01585813686655733
3.698249513753821,-0.015950939004832403
3.701028063350931,-0.04101114767715597
3.7038066129480414,-0.0729244312990241
3.7065851625451516,0.015659011943776766
3.7093637121422622,0.1258779935856382
3.7121422617393725,-0.028363997527275572
3.7149208113364827,0.07066785489219382
3.717699360933593,-0.016470018925298417
3.720477910530703,0.059151415206480866
3.7232564601278137,0.09381294815860836
3.726035009724924,0.12142030853198006
3.728813559322034,0.06355680867852048
3.7315921089191444,0.09585290218757936
3.7343706585162546,0.19227321189334845
3.7371492081133653,0.22846482371964658
3.7399277577104755,0.2684993034193311
3.7427063073075857,0.2567723124354837
3.745484856904696,0.3185689539704302
3.7482634065018066,0.3972228738800815
3.7510419560989168,0.3459444312293106
3.753820505696027,0.29122789813555444
3.756599055293137,0.2996627185536521
3.7593776048902474,0.22750759796402711
3.762156154487358,0.2906293426053104
3.7649347040844683,0.1768294451761442
3.7677132536815785,0.11842334317756198
3.7704918032786887,0.1627884188603419
3.773270352875799,0.08286184761466453
3.7760489024729096,0.0324026963243711
3.77882745207002,0.03792563196843077
3.78160600166713,0.015334102530463987
3.7843845512642402,-0.005228410874827005
3.787163100861351,0.022901663602818704
3.789941650458461,0.007646814101498554
3.7927202000555713,-0.004109750413338281
3.7954987496526815,-0.10274848842674639
3.7982772992497917,0.00887258466267692
3.8010558488469024,0.10614308202411471
3.8038343984440126,0.1835101204675086
3.806612948041123,0.28268749727250153
3.809391497638233,0.5007694366858394
3.8121700472353433,0.8779312266950847
3.814948596832454,1.2444203759585994
3.817727146429564,1.4987907690833457
3.8205056960266743,1.6495155692163115
3.8232842456237845,1.4930053573651825
3.8260627952208948,1.1136446119635144
3.8288413448180054,0.6721308704503116
3.8316198944151156,0.433573023911271
3.834398444012226,0.19325350386709017
3.837176993609336,0.13441930284458875
3.8399555432064467,0.050796836730714404
3.842734092803557,0.03369940627441861
3.845512642400667,-0.0012642245538867425
3.8482911919977774,-0.033050371974995475
3.8510697415948876,-0.06380742945018499
3.8538482911919982,0.03068375535797419
3.8566268407891084,0.0010909355924521612
3.8594053903862187,0.030313213376139573
3.862183939983329,-0.012170755327467695
3.864962489580439,-0.00689124888067348
3.8677410391775497,-0.099421844617666
3.87051958877466,0.016075009496705542
3.87329813837177,-0.030060075714757484
3.8760766879688804,-0.04451572179724376
3.878855237565991,-0.028075727754996418
3.8816337871631013,0.014916892472325714
3.8844123367602115,0.0046342596536547405
3.8871908863573217,0.06747003635908175
3.889969435954432,-0.04270052901551761
3.8927479855515426,0.13584549635516377
3.8955265351486528,-0.027972679651932765
3.898305084745763,0.01884566673176541
3.901083634342873,-0.022133182130951556
3.9038621839399834,-0.017222487619995428
3.906640733537094,0.009240906354313325
3.9094192831342043,-0.04529771763781535
3.9121978327313145,-0.04102956403670046
3.9149763823284247,0.06940657452906891
3.9177549319255354,-0.06894212368333043
3.9205334815226456,-0.022258940768290957
3.923312031119756,-0.04579098345786195
3.926090580716866,0.009262697008639471
3.928869130313976,0.013908653802459073
3.931647679911087,0.025945712829190126
3.934426229508197,-0.05718884011149209
3.9372047791053073,0.013898796067879486
3.9399833287024175,0.06423307718260508
3.9427618782995277,0.062100679819355874
3.9455404278966384,0.015174453812796812
3.9483189774937486,-0.024998795942619455
3.951097527090859,0.01838622264338764
3.953876076687969,-0.07214056880311287
3.9566546262850797,-0.012896345736497845
3.95943317588219,0.027861151226609718
3.9622117254793,0.01137363065323021
3.9649902750764103,-0.015014230668023416
3.9677688246735205,-0.03081819655233385
3.970547374270631,0.02663437865435528
3.9733259238677414,0.012038930057970392
3.9761044734648516,-0.020916210576665446
3.978883023061962,0.0519266839661359
3.981661572659072,0.04349112772945405
3.9844401222561827,0.008907483044086156
3.987218671853293,0.017729357801036218
3.989997221450403,0.030465894168589774
3.9927757710475134,0.06788448159468712
3.995554320644624,0.007942005792883018
3.9983328702417342,0.07927216299626445
4.001111419838844,0.08017127046487395
4.003889969435955,-0.03348059604564093
4.006668519033065,0.010793894885882588
4.009447068630175,0.12859150321037516
4.012225618227285,0.11887827553248476
4.015004167824396,0.08475409042269583
4.017782717421507,0.13842471072068713
4.020561267018617,0.1640986753635464
4.023339816615727,0.1964914898961742
4.026118366212837,0.1691044852211185
4.0288969158099475,0.23046261553805483
4.031675465407058,0.23121378537023438
4.034454015004168,0.28285817692213894
4.037232564601278,0.3150878607436303
4.040011114198388,0.39668905192871323
4.042789663795499,0.3661454845322315
4.04556821339261,0.3983139038703953
4.04834676298972,0.3841020846103618
4.05112531258683,0.39827679655293763
4.05390386218394,0.40474478534465885
4.0566824117810505,0.3164974329865139
4.059460961378161,0.34615576643240814
4.062239510975271,0.27550931594844874
4.065018060572381,0.39357109300154086
4.067796610169492,0.3532083479850016
4.0705751597666024,0.24392464625056748
4.073353709363713,0.2636590919095243
4.076132258960823,0.20603303153412808
4.078910808557933,0.18065517249892754
4.081689358155043,0.16005569800432923
4.0844679077521535,0.16244394371629808
4.087246457349264,0.13564107387557534
4.090025006946374,0.11246270457564518
4.092803556543485,0.030134340948390216
4.095582106140595,0.027863877943422575
4.0983606557377055,0.004471058502019523
4.101139205334816,0.06650806722738802
4.103917754931926,-0.004651601434948062
4.106696304529036,0.04295373578296227
4.109474854126146,0.0016026548016863495
4.1122534037232565,0.06852352047057779
4.115031953320367,0.09190853827111754
4.117810502917477,-0.012521624266665452
4.120589052514588,-0.04009349064892046
4.123367602111698,0.009479543694160656
4.1261461517088085,-0.05846013336330749
4.128924701305919,-0.0522938975583328
4.131703250903029,-0.006356594624069287
4.134481800500139,0.01728594065201252
4.137260350097249,-0.0688040841691394
4.14003889969436,-0.005094598313661695
4.14281744929147,0.002870633908984817
4.145595998888581,-0.03683804827884779
4.148374548485691,0.013759751351729087
4.151153098082801,-0.017190767470597043
4.1539316476799115,-0.010257961797284406
4.156710197277022,0.04065154601702487
4.159488746874132,-0.03127685193659995
4.162267296471242,-0.03422447411734463
4.165045846068352,-0.0376307739276977
4.167824395665463,0.012339967361858021
4.170602945262574,-0.08130107538616363
4.173381494859684,0.01937249259761124
4.176160044456794,0.008538579801425016
4.178938594053904,-0.037036201585149656
4.1817171436510145,0.004248800808896582
4.184495693248125,0.030169550575977092
4.187274242845235,-0.030275117354717378
4.190052792442345,-0.044170375505606714
4.192831342039455,-0.00019760401200878886
4.195609891636566,0.0166353124963585
4.198388441233677,0.03704923298743717
4.201166990830787,0.0425525726426504
4.203945540427897,-0.030560400357247726
4.206724090025007,-0.01323929351673777
4.209502639622118,0.03936195628877653
4.212281189219228,0.0031229723210611177
4.215059738816338,-0.016506891277359926
4.217838288413448,0.06288733712046125
4.220616838010558,-0.030323916477652396
4.2233953876076695,-0.06178926364669923
4.22617393720478,0.01743411340202934
4.22895248680189,-0.03204040852212132
4.231731036399,0.001700010342471232
4.23450958599611,0.024264518469184943
4.237288135593221,-0.08110125356692101
4.240066685190331,0.03249201370298167
4.242845234787441,0.007974144296688366
4.245623784384551,-0.007006227535585517
4.248402333981662,-0.03843401837275637
4.2511808835787726,0.008502699399434654
4.253959433175883,0.06387758270786256
4.256737982772993,0.0711459827958799
4.259516532370103,0.016333415696335
4.262295081967213,-0.022490026780130165
4.265073631564324,-0.007246569964537611
4.267852181161434,-0.07601156780795376
4.270630730758544,0.044551297803572636
4.273409280355654,0.010851171917410661
4.276187829952765,0.019014801936803986
4.278966379549876,-0.06709059328471274
4.281744929146986,0.051515980749793404
4.284523478744096,0.032713050094945025
4.287302028341206,0.004335896847391699
4.290080577938316,0.08386044375447513
4.292859127535427,-0.039583309503586454
4.295637677132537,0.020015343193456023
4.298416226729647,-0.008738608173146445
4.301194776326758,-0.01979928293492914
4.303973325923868,0.04488245049078385
4.306751875520979,-0.041366469313731544
4.309530425118089,-0.015462798769757367
4.312308974715199,0.009805397138189498
4.315087524312309,0.008484644831864258
4.3178660739094195,-0.016718449613173505
4.32064462350653,-0.0028598320710604965
4.32342317310364,-0.010403403858296767
4.32620172270075,0.05300758148664975
4.328980272297861,0.06316123928003485
4.331758821894971,-0.013769222203571487
4.334537371492082,0.028834135891272938
4.337315921089192,-0.028728163157867432
4.340094470686302,0.04730913443293912
4.342873020283412,-0.009958254640476371
4.3456515698805225,-0.007271431488261523
4.348430119477633,-0.034643801257518536
4.351208669074743,0.056734815837760584
4.353987218671854,-0.0020759978055972517
4.356765768268964,0.025954215035984888
4.359544317866074,0.021093015065710576
4.362322867463185,-0.06283852180176316
4.365101417060295,0.015490577272155057
4.367879966657405,0.05705398665878057
4.370658516254515,-0.03292588883608347
4.3734370658516255,-0.04928813043463622
4.376215615448736,-0.019190154940508204
4.378994165045847,0.06599490871422782
4.381772714642957,0.004375766440027653
4.384551264240067,-0.05834780643893149
4.3873298138371775,-0.03610193881019152
4.390108363434288,-5.663560938101323e-05
4.392886913031398,0.011659230592333725
4.395665462628508,-0.027906531134642587
4.398444012225618,-0.018606305841845014
4.4012225618227285,0.05380342195543429
4.404001111419839,-0.025221943558602706
4.40677966101695,-0.04149350337906942
4.40955821061406,0.06456623617798335
4.41233676021117,0.0237796856679387
4.4151153098082805,-0.01735874698488122
4.417893859405391,-0.05038302911009929
4.420672409002501,-0.007238137686892168
4.423450958599611,-0.018942145663446694
4.426229508196721,0.02567826484595323
4.4290080577938316,0.026092674907248935
4.431786607390943,-0.029728946713159333
4.434565156988053,0.02215071279580483
4.437343706585163,-0.012587161724915431
4.440122256182273,-0.06156384345263002
4.4429008057793835,0.015046611911258737
4.445679355376494,0.07557454790027418
4.448457904973604,0.0289342987963433
4.451236454570714,-0.010665221091792704
4.454015004167824,0.09148394678361083
4.4567935537649355,-0.0070480429065417575
4.459572103362046,0.017875391519458217
4.462350652959156,0.042246650004997534
4.465129202556266,-0.004452976897882364
4.467907752153376,-0.06317293640041471
4.4706863017504865,0.01778575057761731
4.473464851347597,-0.06760737801665312
4.476243400944707,0.0024013361603841023
4.479021950541817,0.004883522225584252
4.481800500138927,0.06843788185116301
4.4845790497360385,-0.021637781899083452
4.487357599333149,-0.0365001663529523
4.490136148930259,-0.02882424397002349
4.492914698527369,0.05933169427645517
4.495693248124479,0.023942942227156393
4.49847179772159,0.016216997381062408
4.5012503473187,0.011612507879981257
4.50402889691581,0.026718297756901026
4.50680744651292,0.04294539182631468
4.509585996110031,-0.022551504463940147
4.5123645457071415,-0.08600887383332982
4.515143095304252,-0.0057236769383079335
4.517921644901362,-0.03803180455995627
4.520700194498472,0.07677485229522978
4.523478744095582,-0.0016950735072321968
4.526257293692693,-0.07082795953094273
4.529035843289803,0.026209427608470774
4.531814392886913,0.0026854007179412786
4.534592942484024,0.0725155000372885
4.537371492081134,-0.038098122350196946
4.5401500416782445,0.08628564709368855
4.542928591275355,0.042674862097359684
4.545707140872465,-0.010419610300574724
4.548485690469575,-0.020698664904099058
4.551264240066685,-0.015462507347965804
4.554042789663796,-0.03727112941398275
4.556821339260906,-0.03150116536076678
4.559599888858016,-0.010860324417806457
4.562378438455127,-0.05875476986323533
4.565156988052237,0.007781340928147396
4.567935537649348,0.03444824943324955
4.570714087246458,0.0006367147723139874
4.573492636843568,0.015466156197882518
4.576271186440678,-0.020119299915011043
4.579049736037788,-0.06918266022994317
4.581828285634899,0.033131951973745834
4.584606835232009,-0.0232447711687384
4.58738538482912,-0.0177821886515849
4.59016393442623,0.035404043850535784
4.59294248402334,0.013109213685136846
4.595721033620451,-0.04027189530655267
4.598499583217561,0.05738754613952606
4.601278132814671,-0.03147420655984415
4.604056682411781,-0.027646113936770283
4.6068352320088914,0.04974296099733286
4.609613781606002,0.03959356497049005
4.612392331203113,0.017484392156772006
4.615170880800223,0.042095541230917924
4.617949430397333,-0.03264277720140879
4.620727979994443,-0.013430337186722246
4.623506529591554,-0.06238488625322687
4.626285079188664,-0.009400404874889934
4.629063628785774,0.05134139505239532
4.631842178382884,0.056435169212565146
4.6346207279799945,-0.03955753303823138
4.637399277577105,-0.03841475021112425
4.640177827174216,-0.021081527190750286
4.642956376771326,-0.056375514885131255
4.645734926368436,0.028596515637212886
4.648513475965546,-0.01173373976500983
4.651292025562657,-0.02864649787044962
4.654070575159767,0.01636325714208478
4.656849124756877,0.03491945543438742
4.659627674353987,0.014913396750902187
4.6624062239510975,0.043845447919282375
4.665184773548209,-0.027216517900972074
4.667963323145319,0.05089871297861615
4.670741872742429,-0.06853188768673463
4.673520422339539,0.016464844573337155
4.6762989719366495,-0.08014828489551228
4.67907752153376,0.05434603229615693
4.68185607113087,0.014299861198561102
4.68463462072798,0.04397748876854509
4.68741317032509,0.029804132859412
4.690191719922201,-0.0756359701594752
4.692970269519312,-0.009845599370588083
4.695748819116422,-0.04333962305479543
4.698527368713532,0.01172454840491085
4.701305918310642,-0.03060628279296453
4.7040844679077525,0.06291679065645307
4.706863017504863,0.0012701491707248001
4.709641567101973,-0.03667897549206222
4.712420116699083,0.03337594249246787
4.715198666296193,0.0034476590929732463
4.717977215893304,-0.04876135445793522
4.720755765490415,-0.01573473254046649
4.723534315087525,-0.019407916659837075
4.726312864684635,-0.03283305412687131
4.729091414281745,0.03253683319823185
4.7318699638788555,0.07808660006509938
4.734648513475966,0.05839272374920724
4.737427063073076,-0.022409073530014423
4.740205612670186,-0.03431582140685516
4.742984162267297,-0.012747588185632628
4.7457627118644075,0.01672837622105097
4.748541261461518,0.03098473269056705
4.751319811058628,-0.015478366463346447
4.754098360655738,0.002324005507142675
4.756876910252848,0.00764220279768325
4.7596554598499585,0.08216019571017018
4.762434009447069,0.029048073376584122
4.765212559044179,0.03118827943599484
4.767991108641289,0.01658378098905023
4.7707696582384,0.020404293818521584
4.7735482078355105,0.06499333838427795
4.776326757432621,0.05457684525633698
4.779105307029731,-0.02021022305998984
4.781883856626841,0.037224335289315576
4.784662406223951,-0.08784324448807246
4.7874409558210616,-0.00790127573552489
4.790219505418172,0.00695835784832641
4.792998055015282,0.03320750934787644
4.795776604612393,-0.043116762686955364
4.798555154209503,-0.0063844469359259515
4.8013337038066135,0.007998991885745252
4.804112253403724,-0.08676637278781739
4.806890803000834,0.03892979409727644
4.809669352597944,-0.004860928200547215
4.812447902195054,-0.011644734673427663
4.815226451792165,0.049832299340309756
4.818005001389275,-0.04107394496164011
4.820783550986386,0.02949348543358831
4.823562100583496,0.05416675219816897
4.826340650180606,0.02684857432930891
4.8291191997777165,0.011173812260008546
4.831897749374827,-0.06932948018306592
4.834676298971937,-0.012115847655088273
4.837454848569047,-0.0480909851228421
4.840233398166157,-0.025127510196291246
4.843011947763268,-0.04571884258701623
4.845790497360378,0.058386178801929076
4.848569046957489,-0.00788914687006742
4.851347596554599,0.015882307865148704
4.854126146151709,-0.054878466008197575
4.85690469574882,-0.065742362876056
4.85968324534593,-0.020412064788854545
4.86246179494304,0.021969426372860416
4.86524034454015,-0.01577403716333116
4.86801889413726,0.006047367582923898
4.870797443734371,0.035789124354222206
4.873575993331482,0.04979538100090192
4.876354542928592,0.006729415007115997
4.879133092525702,0.011050416182078427
4.881911642122812,0.024153404211452192
4.884690191719923,0.044472847625142024
4.887468741317033,-0.04882557204830646
4.890247290914143,0.04350748401905286
4.893025840511253,-0.07608486351158497
4.895804390108363,0.05251757441658027
4.8985829397054745,0.001657393875827159
4.901361489302585,-0.008534032127300384
4.904140038899695,0.04211654023579106
4.906918588496805,0.005935723243258598
4.909697138093915,-0.007532896285539601
4.912475687691026,-0.006494120579581854
4.915254237288136,0.008352953118253799
4.918032786885246,0.004942034172575327
4.920811336482356,0.08229067129472306
4.9235898860794665,0.04995101637091047
4.926368435676578,0.11576034039058446
4.929146985273688,0.14706478689234523
4.931925534870798,0.1792665904946182
4.934704084467908,0.27741591513689523
4.937482634065018,0.19489111485726776
4.940261183662129,0.25121392138306614
4.943039733259239,0.24620193461867002
4.945818282856349,0.3378704816029803
4.948596832453459,0.3256594029948629
4.95137538205057,0.2569166539550982
4.954153931647681,0.3957448860449463
4.956932481244791,0.2615520233175429
4.959711030841901,0.23795857487416658
4.962489580439011,0.25429448746368394
4.965268130036121,0.21072064140718488
4.968046679633232,0.11265018905427636
4.970825229230342,0.024513123532013403
4.973603778827452,0.07676659850074509
4.976382328424563,-0.0032416527034543896
4.979160878021673,0.0899004453184411
4.981939427618784,0.09598256444203719
4.984717977215894,0.04895793392322169
4.987496526813004,-0.05099336324901234
4.990275076410114,0.018103953533150544
4.9930536260072245,-0.002409663770395011
4.995832175604335,0.12059276113893341
4.998610725201445,-0.05308080769560856
5.001389274798555,0.028981238771034454
5.004167824395666,0.13844419033598115
5.006946373992776,0.3062211012051811
5.009724923589887,0.5003801404233099
5.012503473186997,0.8574796719097798
5.015282022784107,1.3173727595682685
5.018060572381217,1.491663306457529
5.0208391219783275,1.6414960826813745
5.023617671575438,1.4448556230866996
5.026396221172548,1.0894348667057805
5.029174770769659,0.6558873398321843
5.031953320366769,0.4021808181427984
5.0347318699638794,0.17821035216811043
5.03751041956099,0.09731282804602795
5.0402889691581,0.07045832438808317
5.04306751875521,0.002528171782137394
5.04584606835232,0.05535537304557338
5.0486246179494305,0.08737006882400893
5.051403167546541,-0.05612977241381098
5.054181717143652,-0.03885746172568443
5.056960266740762,0.036363340079167625
5.059738816337872,-0.035929922173802
5.0625173659349825,0.008501393870000297
5.065295915532093,-0.03831685013524207
5.068074465129203,0.019673151971114418
5.070853014726313,-0.024490821720522814
5.073631564323423,0.04332057589849094
5.0764101139205335,0.0334978601001462
5.079188663517644,0.04515029743821328
5.081967213114755,-0.025670803502006095
5.084745762711865,-0.021338515452737954
5.087524312308975,-0.030024594272623672
5.0903028619060855,0.017481185438338407
5.093081411503196,0.041587040926019524
5.095859961100306,0.004892794297037858
5.098638510697416,-0.008064014818138976
5.101417060294526,-0.056168823704169084
5.104195609891637,0.06010437955227225
5.106974159488748,0.012353784247233449
5.109752709085858,0.006658460984720519
5.112531258682968,-0.009573425132575643
5.115309808280078,-0.03807695468581034
5.1180883578771885,0.021781628791241788
5.120866907474299,-0.03220366714066957
5.123645457071409,0.0008891965916373443
5.126424006668519,0.026613818218159682
5.129202556265629,-0.04022839627173412
5.1319811058627405,-0.019258547643703303
5.134759655459851,-0.004533855806481043
5.137538205056961,0.0024644094616207706
5.140316754654071,-0.09383670700117054
5.143095304251181,0.05748271327715655
5.1458738538482915,-0.07813637310816263
5.148652403445402,-0.02112758521272337
5.151430953042512,0.061707752951610045
5.154209502639622,-0.003678972937380366
5.156988052236732,0.003622478640835144
5.1597666018338435,-0.022752340728331523
5.162545151430954,-0.029397477203504104
5.165323701028064,0.02584892238803026
5.168102250625174,0.016602710461264117
5.170880800222284,-0.008665446224219806
5.173659349819395,0.06771605881235479
5.176437899416505,-0.03442135891677574
5.179216449013615,0.008987143174764022
5.181994998610725,-0.014232958530014363
5.184773548207836,0.005271265574789907
5.1875520978049465,0.030883965914223162
5.190330647402057,0.033480552835526624
5.193109196999167,0.018796328872312813
5.195887746596277,0.004157275163347841
5.198666296193387,0.06580609631847854
5.201444845790498,0.055268585810209256
5.204223395387608,0.023604029790051523
5.207001944984718,0.1047100898197949
5.209780494581829,0.07467219547064469
5.212559044178939,0.10384867410097755
5.2153375937760496,0.14895570334270605
5.21811614337316,0.1286944227639562
5.22089469297027,0.06814139367037073
5.22367324256738,0.24066983870430197
5.22645179216449,0.12747941866730456
5.229230341761601,0.20892195681350212
5.232008891358711,0.2749713136272428
5.234787440955821,0.352689682549748
5.237565990552932,0.3030554139881981
5.240344540150042,0.40300588627771095
5.243123089747153,0.41702762459703235
5.245901639344263,0.30928793081665473
5.248680188941373,0.3834565156483382
5.251458738538483,0.3343952974871311
5.254237288135593,0.3975268359010603
5.257015837732704,0.3761062157372399
5.259794387329814,0.39196804496385185
5.262572936926925,0.3546387540864323
5.265351486524035,0.35020230619691484
5.268130036121145,0.3220648150631715
5.270908585718256,0.30232386266123196
5.273687135315366,0.28190202643452905
5.276465684912476,0.14700813654414946
5.279244234509586,0.13498463128425514
5.2820227841066965,0.19346550624520303
5.284801333703807,0.071224909848155
5.287579883300917,0.09830797076031805
5.290358432898028,0.02566724901086815
5.293136982495138,0.05038379861053516
5.295915532092248,0.07782905455965355
5.298694081689359,-0.030215652481072094
5.301472631286469,0.0122326739424276
5.304251180883579,0.07783587194659702
5.307029730480689,0.032636936576226155
5.3098082800777995,0.0210858850811452
5.31258682967491,0.04067399370120951
5.315365379272021,0.008424917167550918
5.318143928869131,0.08168544462690398
5.320922478466241,-0.04172975345174583
5.323701028063351,-0.03743885863850089
5.326479577660462,0.012158638525777485
5.329258127257572,0.021909858062634038
5.332036676854682,-0.011798894407753538
5.334815226451792,-0.0008899881475070714
5.3375937760489025,0.022662605297169704
5.340372325646014,0.01861288547297336
5.343150875243124,-0.0339129423950671
5.345929424840234,-0.05866368039739001
5.348707974437344,-0.029454782004389952
5.3514865240344545,-0.02525997999841537
5.354265073631565,0.06341809333562305
5.357043623228675,0.09172470778826296
5.359822172825785,0.03870575995304813
5.362600722422895,0.031959313887411384
5.3653792720200055,0.005268277898805336
5.368157821617117,-0.03803233837689885
5.370936371214227,0.0522034210645101
5.373714920811337,-0.024961700499001847
5.376493470408447,0.0775897952642853
5.3792720200055575,0.02232353959422029
5.382050569602668,-0.008903503317841586
5.384829119199778,-0.010803930329484639
5.387607668796888,-0.014218600414047416
5.390386218393998,0.00031457026130656657
5.393164767991109,0.05561856837171897
5.39594331758822,-0.11890486647545974
5.39872186718533,-0.04831434833535302
5.40150041678244,0.03969363472875888
5.40427896637955,0.03520881403071563
5.4070575159766605,0.015274126126673922
5.409836065573771,-0.022385450093182775
5.412614615170881,-0.028580333402669893
5.415393164767991,-0.011260988652300933
5.418171714365102,-0.01163435277116667
5.4209502639622125,0.051839495769395144
5.423728813559323,0.005078641794279659
5.426507363156433,-0.029239697003277762
5.429285912753543,0.04429771859117464
5.432064462350653,-0.06994837400081828
5.4348430119477635,-0.05703787506517823
5.437621561544874,0.040977785953495646
5.440400111141984,0.03623053509613904
5.443178660739094,-0.0635658250595941
5.445957210336205,0.008399076516563707
5.4487357599333155,0.018426705544867177
5.451514309530426,-0.020989303224894718
5.454292859127536,0.018799827089945837
5.457071408724646,-0.024446639574690232
5.459849958321756,0.03304763524186841
5.462628507918867,0.036879782863055446
5.465407057515977,-0.001867003211453836
5.468185607113087,1.2811717478482787e-05
5.470964156710198,-0.03975733759264224
5.473742706307308,-0.010751754038095473
5.4765212559044185,0.0490221138256067
5.479299805501529,-0.04186187387516099
5.482078355098639,-0.008500710038686047
5.484856904695749,-0.023219927465136684
5.487635454292859,-0.028166973079992705
5.49041400388997,-0.010803121949304686
5.49319255348708,-0.015646998773088824
5.495971103084191,-0.01414756220537611
5.498749652681301,-0.03435302192436224
5.501528202278411,0.08180059163315934
5.5043067518755215,-0.03731974607523605
5.507085301472632,-0.0068396574945701885
5.509863851069742,-0.014201463597992419
5.512642400666852,-0.06931235807049207
5.515420950263962,0.025749829631886052
5.518199499861073,0.007733370524732158
5.520978049458183,-0.09553167524126698
5.523756599055294,-0.021058589213820433
5.526535148652404,0.012214041729023713
5.529313698249514,0.021190267682606807
5.532092247846625,-0.00632233353694452
5.534870797443735,-0.01626930536375241
5.537649347040845,-0.0010887465669830994
5.540427896637955,0.08576453795603521
5.543206446235065,0.025741327646041024
5.545984995832176,0.014537977499751956
5.548763545429287,0.037060663288146306
5.551542095026397,-0.008106801563913899
5.554320644623507,-0.01874291481903214
5.557099194220617,0.034065210465142486
5.559877743817728,0.021331551393239653
5.562656293414838,0.025893394751687508
5.565434843011948,0.018843182385394605
5.568213392609058,0.06473915482284394
5.5709919422061684,0.038593640238200534
5.5737704918032795,-0.06082184461654328
5.57654904140039,0.0067230799438248254
5.5793275909975,0.016509465818453223
5.58210614059461,-0.009265261753017234
5.58488469019172,-0.012735635620261568
5.587663239788831,-0.006535608295606764
5.590441789385941,0.07388754416077938
5.593220338983051,-0.0718160274945663
5.595998888580161,0.02291812277611233
5.5987774381772715,0.03558045669161974
5.601555987774383,-0.02347939553388538
5.604334537371493,0.02565964578328704
5.607113086968603,-0.0544280098904901
5.609891636565713,-0.031154402756213815
5.612670186162823,0.035798285043239175
5.615448735759934,0.017635318216199087
5.618227285357044,0.031759776363640656
5.621005834954154,-0.04886794087016678
5.623784384551264,-0.04320474495189885
5.626562934148375,-0.013668548871832432
5.629341483745486,0.010700248486369763
5.632120033342596,-0.029952617010584114
5.634898582939706,-0.06291662200548008
5.637677132536816,0.005907661909238103
5.6404556821339265,-0.03660938787298267
5.643234231731037,-0.0460535385224481
5.646012781328147,0.06799952516098447
5.648791330925257,0.0306355790496393
5.651569880522368,-0.013679873376777563
5.654348430119478,0.027313991565542636
5.657126979716589,-0.04122207893858535
5.659905529313699,0.0055023130458296265
5.662684078910809,-0.020279314050916576
5.665462628507919,0.0009988361568553652
5.6682411781050295,-0.04600777930047556
5.67101972770214,0.06521482733616116
5.67379827729925,-0.05408796151033962
5.67657682689636,-0.05284559654716785
5.679355376493471,0.019616009317816287
5.682133926090581,0.042551128016181314
5.684912475687692,-0.0006798113504257849
5.687691025284802,-0.0013565769265309173
5.690469574881912,0.009184923162923376
5.693248124479022,-0.018777438476856482
5.6960266740761325,0.0024598473262842408
5.698805223673243,0.00558592310437014
5.701583773270353,0.03167964673642394
5.704362322867464,0.00021022884934956786
5.707140872464574,-0.0030091924468677164
5.7099194220616845,0.00866568849195431
5.712697971658795,0.0658585252239429
5.715476521255905,-0.06865544843925299
5.718255070853015,-0.009739893555714823
5.721033620450125,-0.037603865383457696
5.7238121700472355,0.026456604888716446
5.726590719644346,0.0234826374253272
5.729369269241456,0.021302670982177713
5.732147818838567,-0.0007127028087094292
5.734926368435677,0.05897490494483197
5.7377049180327875,0.0018354019721099353
5.740483467629898,0.08419732537762868
5.743262017227008,-0.027140604043902294
5.746040566824118,-0.03167727847151411
5.748819116421228,0.024979057954801803
5.7515976660183386,-0.013040031785878654
5.754376215615449,0.008184023430001575
5.75715476521256,0.01795030775008574
5.75993331480967,-0.04199082108202597
5.76271186440678,-0.02031162336904603
5.7654904140038905,-0.04688322387803847
5.768268963601001,-0.01704952951320089
5.771047513198111,0.04771581796604233
5.773826062795221,0.02038375422904163
5.776604612392331,-0.012149501119327506
5.779383161989442,-0.038567673853527815
5.782161711586553,-0.055713044688110634
5.784940261183663,-0.06118602741049956
5.787718810780773,0.027017772113212407
5.790497360377883,0.025214938848181014
5.7932759099749935,0.01565216404563127
5.796054459572104,0.07882840179280702
5.798833009169214,0.0052822116803335085
5.801611558766324,0.023321822052499663
5.804390108363434,0.008726047201987637
5.807168657960545,0.025043374761506414
5.809947207557656,-0.03134929231367121
5.812725757154766,-0.003093379099973665
5.815504306751876,-0.06636199145728668
5.818282856348986,-0.008800310169404591
5.821061405946097,-0.026776583538880003
5.823839955543207,0.05123502253095567
5.826618505140317,-0.014429577634502566
5.829397054737427,0.016067541350770306
5.832175604334537,0.004897647744003176
5.8349541539316485,0.011156809710814224
5.837732703528759,-0.04309259082941679
5.840511253125869,0.025858299853276475
5.843289802722979,0.030069115741330168
5.846068352320089,-0.008899645074502405
5.8488469019172,-0.034398382804141744
5.85162545151431,-0.007340544203240266
5.85440400111142,0.004670821672169944
5.85718255070853,-0.060290967499557716
5.859961100305641,-0.01661562698026377
5.8627396499027515,0.04419723908100516
5.865518199499862,0.0016090270991270638
5.868296749096972,0.08576019179281674
5.871075298694082,0.0007316014951773992
5.873853848291192,0.02072216961618995
5.876632397888303,0.02300423528470108
5.879410947485413,0.0042027088826468405
5.882189497082523,-0.0253032537889786
5.884968046679633,0.0999496331624315
5.887746596276744,-0.0015693362132402366
5.890525145873855,-0.02608440307296547
5.893303695470965,0.043336520841412755
5.896082245068075,-0.004178788531732049
5.898860794665185,0.01060251244444848
5.901639344262295,0.022393371150183743
5.904417893859406,0.06364605329155229
5.907196443456516,0.03589759885927295
5.909974993053626,-0.043469245835172705
5.912753542650737,0.03165117358716528
5.915532092247847,-0.04009635651128016
5.918310641844958,0.010003577595790932
5.921089191442068,0.044564855176508884
5.923867741039178,-0.042359164299161936
5.926646290636288,0.0009847974682496514
5.929424840233398,-0.029081328783351474
5.932203389830509,0.02805379215638421
5.934981939427619,-0.012654909769024999
5.93776048902473,0.02372179700642483
5.94053903862184,0.03235178371453988
5.94331758821895,0.005572832852349948
5.946096137816061,-0.005989704143140477
5.948874687413171,-0.024079529439541808
5.951653237010281,0.012577332382735704
5.954431786607391,0.015271643924453744
5.9572103362045015,-0.09864916908287029
5.959988885801612,0.032931188235130804
5.962767435398722,0.014521279049699971
5.965545984995833,0.06563838574940464
5.968324534592943,-0.011627904656629547
5.971103084190053,-0.0006802265863415194
5.973881633787164,-0.009866658292454476
5.976660183384274,0.04912211637895738
5.979438732981384,0.007338890310467479
5.982217282578494,-0.009960268021090594
5.9849958321756045,0.019545032470815505
5.987774381772715,0.024366104674749506
5.990552931369826,-0.01554074950751492
5.993331480966936,0.014940194877399218
5.996110030564046,0.025930438688683496
5.9988885801611564,-0.002844721714427199
6.001667129758267,0.05106592833120595
6.004445679355377,-0.006672652591886282
6.007224228952487,0.03766638750827991
6.010002778549597,0.11407392155830053
6.0127813281467075,0.023097220024560758
6.015559877743819,-0.014437071366915157
6.018338427340929,-0.03242226575855684
6.021116976938039,-0.03636284251240205
6.023895526535149,-0.01967521250430929
6.0266740761322595,0.03813393872443138
6.02945262572937,-0.035831913817336164
6.03223117532648,-0.03546991407584042
6.03500972492359,-0.01622109011484824
6.0377882745207,0.029862350692673397
6.0405668241178105,0.041718811888198155
6.043345373714922,-0.04686194733814065
6.046123923312032,-0.05707202619129809
6.048902472909142,-0.0004311191363089392
6.051681022506252,-0.009696958102757837
6.0544595721033625,0.013356189252618472
6.057238121700473,-0.02443981011461321
6.060016671297583,-0.007703972254021031
6.062795220894693,0.001366581462595872
6.065573770491803,0.03225323087720745
6.0683523200889145,0.05343240554821896
6.071130869686025,-0.07783432834744301
6.073909419283135,-0.019289893930415098
6.076687968880245,-0.005620786307435765
6.079466518477355,-0.01410257272295396
6.0822450680744655,-0.006067024161683755
6.085023617671576,0.03822190229339036
6.087802167268686,0.07423557447068811
6.090580716865796,-0.04130726970078642
6.093359266462907,-0.05574186950842908
6.0961378160600175,-0.011746220197354003
6.098916365657128,-0.053156897933996174
6.101694915254238,-0.016117237468644366
6.104473464851348,-0.03974517096108583
6.107252014448458,0.0019783718892226257
6.1100305640455685,0.04848660515841455
6.112809113642679,0.03991136252675985
6.115587663239789,0.010140003802346302
6.118366212836899,0.046968602312017535
6.12114476243401,0.057161296690263305
6.1239233120311205,-0.012196303627254795
6.126701861628231,0.11913825864028392
6.129480411225341,0.14702892040497487
6.132258960822451,0.1324061550287565
6.135037510419561,0.1684406150886145
6.137816060016672,0.26288841403298957
6.140594609613782,0.3112459671059532
6.143373159210892,0.2933937031632171
6.146151708808003,0.2305444779887246
6.148930258405113,0.31698549305141976
6.1517088080022235,0.26454708380981967
6.154487357599334,0.29085037485653703
6.157265907196444,0.251573882770484
6.160044456793554,0.19319139051260636
6.162823006390664,0.2108398081360575
6.165601555987775,0.18085706799826018
6.168380105584885,0.16132828272424818
6.171158655181995,0.0688844031791179
6.173937204779106,0.040967346780927706
6.176715754376216,0.10326603486319981
6.1794943039733266,0.041270664377630904
6.182272853570437,0.08813371949767723
6.185051403167547,0.012635108551233022
6.187829952764657,-0.03178233221482803
6.190608502361767,0.029474370819463504
6.193387051958878,0.012768154220073477
6.196165601555988,-0.013559941510239742
6.198944151153099,0.04449629166905626
6.201722700750209,0.10228999220422069
6.204501250347319,0.20385492890516574
6.20727979994443,0.3823973169370428
6.21005834954154,0.6188786421922363
6.21283689913865,0.9401663683752572
6.21561544873576,1.3020923493365677
6.21839399833287,1.4679745025403772
6.221172547929981,1.6371522337759004
6.223951097527092,1.3377545502577626
6.226729647124202,1.0056956806668758
6.229508196721312,0.6066079796439556
6.232286746318422,0.3613649120365945
6.235065295915533,0.11898928952454713
6.237843845512643,0.07692265627304559
6.240622395109753,0.07537980791757137
6.243400944706863,-0.033401470316200596
6.2461794943039735,-0.02245355759657186
6.248958043901084,0.005614019763961694
6.251736593498195,-0.01627694560452316
6.254515143095305,-0.031199599150813145
6.257293692692415,0.033989490362417364
6.260072242289525,0.1377026611282551
6.262850791886636,0.03293523910705046
6.265629341483746,0.02802136331224327
6.268407891080856,0.012260423553700564
6.271186440677966,0.07352737908591833
6.2739649902750765,0.016194834302938343
6.276743539872188,0.08014612739054922
6.279522089469298,-0.013494905007787756
6.282300639066408,0.05285777173260153
6.285079188663518,-0.016921970260380843
6.287857738260628,0.057478357816849485
6.290636287857739,0.0050107978220895405
6.293414837454849,0.01584261309885921
6.296193387051959,0.047227560159933714
6.298971936649069,-0.02934324077436105
6.30175048624618,-0.0032775642940138967
6.304529035843291,-0.023966154433078417
6.307307585440401,-0.020197166095261305
6.310086135037511,0.022292700695889952
6.312864684634621,-0.03986227892905439
6.3156432342317315,0.013889927526334025
6.318421783828842,0.050672195782711885
6.321200333425952,-0.007880300872849397
6.323978883023062,-0.09792984296587537
6.326757432620172,-0.002329704520737038
6.329535982217283,0.002547989915319898
6.332314531814394,0.01161877622676962
6.335093081411504,0.011493384466476903
6.337871631008614,-0.10636677875593968
6.340650180605724,0.02348041600028738
6.3434287302028345,0.04724364422852935
6.346207279799945,-0.005604685404926309
6.348985829397055,0.0706827774663019
6.351764378994165,-0.0360030713525152
6.354542928591276,-0.026703213404243937
6.357321478188386,0.021885052227721226
6.360100027785497,-0.0177002777618143
6.362878577382607,-0.03846788458033011
6.365657126979717,-0.020676428104152128
6.368435676576827,0.024071342132466627
6.3712142261739375,0.005339113042857059
6.373992775771048,0.02129094527378437
6.376771325368158,0.02026543748140482
6.379549874965269,0.0036041156676120344
6.382328424562379,-0.001009592752322484
6.3851069741594895,0.028244569569140836
6.3878855237566,0.02158029590381532
6.39066407335371,-0.03596101531139302
6.39344262295082,0.040950829502388236
6.39622117254793,-0.04038694704110396
6.3989997221450405,0.09130886665632397
6.401778271742151,-0.00653786916025869
6.404556821339261,0.024147969185989406
6.407335370936372,0.07710618797851815
6.410113920533482,0.05041984333972768
6.4128924701305925,0.07890845987774145
6.415671019727703,0.05584294941970433
6.418449569324813,0.15355655768095997
6.421228118921923,0.11295402514596382
6.424006668519033,0.22486371432713972
6.426785218116144,0.22994308391566148
6.429563767713254,0.26515038361865134
6.432342317310365,0.2927059601166585
6.435120866907475,0.3676841081335975
6.437899416504585,0.31561381736727234
6.4406779661016955,0.4058963896330131
6.443456515698806,0.3557565444028359
6.446235065295916,0.40528419147691785
6.449013614893026,0.45878251599159914
6.451792164490136,0.3087401473177248
6.454570714087247,0.37142219484701544
6.457349263684358,0.41378834717989404
6.460127813281468,0.3910163601629296
6.462906362878578,0.36125620728183633
6.465684912475688,0.35113211243700493
6.4684634620727985,0.32088395117089014
6.471242011669909,0.2844028772245167
6.474020561267019,0.260307223959646
6.476799110864129,0.11882115689676792
6.479577660461239,0.1976468796457872
6.48235621005835,0.12079986442818681
6.485134759655461,0.10953878868494805
6.487913309252571,0.07797045845090667
6.490691858849681,0.050036394680100835
6.493470408446791,0.08839231385727842
6.496248958043902,0.05696651231211985
6.499027507641012,-0.058111222726873725
6.501806057238122,-0.020609739800807273
6.504584606835232,0.01398015373030556
6.507363156432342,0.004802362930942048
6.5101417060294535,0.018723780629688876
6.512920255626564,0.00745480547034419
6.515698805223674,0.08025951133510405
6.518477354820784,-0.024913563291311114
6.521255904417894,-0.053123648417309065
6.524034454015005,-0.025931064906724074
6.526813003612115,0.10739987597974616
6.529591553209225,0.00831030038564077
6.532370102806335,-0.07849792397614785
6.535148652403446,0.052842324938238816
6.5379272020005565,-0.04573610490523472
6.540705751597667,-0.03329097212505554
6.543484301194777,0.009709614969466691
6.546262850791887,-0.04626903914341155
6.549041400388997,0.013100121189013242
6.551819949986108,-0.06351026781230348
6.554598499583218,0.022066235719001796
6.557377049180328,0.019461223786948607
6.560155598777438,0.0778117628703872
6.562934148374549,-0.00538200714079573
6.56571269797166,-0.03656996130705503
6.56849124756877,-0.0164139295246837
6.57126979716588,-0.0043318763062452385
6.57404834676299,-0.016095996365945085
6.5768268963601,-0.030031427949048513
6.579605445957211,-0.059837308824861275
6.582383995554321,-0.010478743275263448
6.585162545151431,0.0003238015941401493
6.587941094748542,0.015165872367997938
6.590719644345652,-0.019086561324441902
6.593498193942763,0.03173672207141689
6.596276743539873,0.04577631708035981
6.599055293136983,0.0715047637278339
6.601833842734093,0.019692104402106343
6.6046123923312035,-0.021111695177455255
6.607390941928314,-0.07119686849105268
6.610169491525424,0.03917305385489222
6.612948041122535,0.07079148212468271
6.615726590719645,0.03660689467647824
6.618505140316755,0.025995987920450648
6.621283689913866,0.027106021862244988
6.624062239510976,0.031808286248213365
6.626840789108086,-0.06677083813702128
6.629619338705196,0.007789334857852782
6.6323978883023065,0.005445194710536748
6.635176437899417,0.02420907556145418
6.637954987496527,0.03201147184374007
6.640733537093638,-0.013749313358079359
6.643512086690748,0.013392926340226404
6.646290636287858,-0.027823460512716752
6.649069185884969,-0.005115742154704047
6.651847735482079,-0.015305820797760303
6.654626285079189,0.00703659776364958
6.657404834676299,0.03719785305961698
6.6601833842734095,0.03231388666183038
6.66296193387052,0.01275996048248052
6.665740483467631,-0.017655695361679345
6.668519033064741,0.06446628068512941
6.671297582661851,-0.009771907997488997
6.6740761322589615,-0.04922241751353948
6.676854681856072,-0.058214264227879266
6.679633231453182,-0.025512568436052506
6.682411781050292,0.05522361363775306
6.685190330647402,-0.010298054053286168
6.6879688802445125,-0.036177654909775696
6.690747429841623,-0.07369640284982924
6.693525979438734,-0.059838522873613215
6.696304529035844,0.05220864840717128
6.699083078632954,0.04669320230188229
6.7018616282300645,-0.03591115464603486
6.704640177827175,0.02093861614436632
6.707418727424285,0.06813552395599094
6.710197277021395,-0.027391745705348122
6.712975826618505,0.04328984549746173
6.7157543762156156,-0.03078118507974492
6.718532925812727,0.015068342555599122
6.721311475409837,0.006439114558647226
6.724090025006947,0.0416025228818365
6.726868574604057,0.0221385820165603
6.7296471242011675,0.007880326497970866
6.732425673798278,-0.00453605506995006
6.735204223395388,-0.008145674477560214
6.737982772992498,-0.03585941018216794
6.740761322589608,-0.03838893726097523
6.7435398721867195,-0.003907692416052216
6.74631842178383,-0.04418529090856456
6.74909697138094,0.0012376602634073647
6.75187552097805,-0.004751387797310255
6.75465407057516,0.008693000527919895
6.7574326201722705,-0.06211514689253032
6.760211169769381,0.030773724286302533
6.762989719366491,0.030686614275718095
6.765768268963601,-0.012982189661776512
6.768546818560711,-0.018804360286036367
6.7713253681578225,0.0031852024119927457
6.774103917754933,0.009789982745741698
6.776882467352043,-0.011813894518411786
6.779661016949153,-0.02014910877358245
6.782439566546263,0.036456875271083065
6.785218116143374,-0.0006662654257652824
6.787996665740484,-0.006930396875369103
6.790775215337594,0.034570264019001457
6.793553764934704,0.015516113995723217
6.796332314531815,0.0075340011097730555
6.7991108641289255,0.02040224445881486
6.801889413726036,0.028647713296619873
6.804667963323146,0.03224216443926714
6.807446512920256,0.03719505166709463
6.810225062517366,0.024830806532198345
6.813003612114477,-0.003614455689506246
6.815782161711587,-0.023415517561555577
6.818560711308697,-0.014400015026051372
6.821339260905808,0.05346737566515908
6.824117810502918,0.017433914429579592
6.8268963601000285,0.04528441456333399
6.829674909697139,0.055189256203895205
6.832453459294249,-0.09082082029017814
6.835232008891359,-0.030409829430189075
6.838010558488469,-0.0003915815329188845
6.84078910808558,0.014682248364477648
6.84356765768269,0.0005916734525299983
6.8463462072798,-0.03441265490400665
6.849124756876911,-0.022068890914805208
6.851903306474021,0.050705459717069634
6.854681856071132,0.07546224393152234
6.857460405668242,0.021724978025202422
6.860238955265352,-0.0904350411404983
6.863017504862462,0.10309940798157291
6.865796054459572,-0.0030739936640812597
6.868574604056683,0.024246259592670998
6.871353153653793,0.005444818489888036
6.874131703250904,0.008097891450322801
6.876910252848014,-0.011270474225685183
6.879688802445124,0.007921980350491747
6.882467352042235,0.0041573086980070985
6.885245901639345,0.06231312469023834
6.888024451236455,-0.014490833015171897
6.890803000833565,-0.07196879652015885
6.893581550430675,-0.028061570131731106
6.896360100027786,0.009483072663319254
6.899138649624897,-0.01662521273518318
6.901917199222007,-0.015519599344686446
6.904695748819117,-0.0047692022201448175
6.907474298416227,-0.004307941904875468
6.910252848013338,0.007616025918357704
6.913031397610448,-0.014635953516585493
6.915809947207558,-0.03952378635566158
6.918588496804668,-0.003986531243755903
6.9213670464017785,-0.06978054154106192
6.924145595998889,-0.02181722023668948
6.926924145596,0.014513061984256429
6.92970269519311,0.002287491578380562
6.93248124479022,-0.03936986968669145
6.93525979438733,0.003253557439447052
6.938038343984441,-0.019976760677592957
6.940816893581551,-0.018706782550091835
6.943595443178661,-0.010960312184211425
6.946373992775771,-0.039463267608143955
6.9491525423728815,0.048242380347458286
6.951931091969993,0.003540731326149432
6.954709641567103,-0.0026405586694975636
6.957488191164213,0.06327810056212439
6.960266740761323,0.005684761939589798
6.9630452903584334,-0.04245951191877872
6.965823839955544,0.0055197728770794785
6.968602389552654,-0.012490284894080605
6.971380939149764,0.002632896869998819
6.974159488746874,0.0030562232578214507
6.976938038343985,0.05258448996403857
6.979716587941096,0.050877223019980156
6.982495137538206,-0.021166107397246413
6.985273687135316,0.008975160778071535
6.988052236732426,-0.0031206537147630904
6.9908307863295365,-0.06519446177635932
6.993609335926647,0.0068086307126604614
6.996387885523757,-0.0028157030103856387
6.999166435120867,-0.020268184350511666
7.001944984717977,0.026426934864824198
7.004723534315088,0.008413712458622885
7.007502083912199,-0.029674805515474172
7.010280633509309,-0.01465091656038011
7.013059183106419,0.04772931283641545
7.015837732703529,-0.006243428889531761
7.0186162823006395,0.06671614217985057
7.02139483189775,-0.010740256498209463
7.02417338149486,-0.05656787487128057
7.02695193109197,-0.013519823439940813
7.029730480689081,0.025610492414153557
7.0325090302861915,0.024146950490050965
7.035287579883302,-0.025531838062326503
7.038066129480412,0.030900504958109455
7.040844679077522,-0.035202409530980465
7.043623228674632,0.0723183180400878
7.0464017782717425,-0.01204844655723356
7.049180327868853,0.002296638161617496
7.051958877465963,0.019115903626400962
7.054737427063074,0.02636649717626944
7.057515976660184,-0.027169348647052078
7.0602945262572945,-0.011619862347783763
7.063073075854405,0.000508256077283628
7.065851625451515,0.0023648651263986397
7.068630175048625,-0.03931297368372158
7.071408724645735,-0.019355216763011808
7.0741872742428455,-0.05923669254352069
7.076965823839956,-0.01602009508196994
7.079744373437066,0.010665752296096913
7.082522923034177,0.0463127730797558
7.085301472631287,-0.006351185296885329
7.0880800222283975,0.05041018041833766
7.090858571825508,-0.05925734310597561
7.093637121422618,-0.05478986481244855
7.096415671019728,-0.06797453692905019
7.099194220616838,0.06564115139803252
7.101972770213949,-0.06313846728251607
7.104751319811059,0.030607608718967474
7.10752986940817,-0.037822754796182
7.11030841900528,0.07814165011508033
7.11308696860239,-0.020926563720318325
7.1158655181995005,0.007509908008825331
7.118644067796611,0.025255649437134414
7.121422617393721,-0.018827265626351567
7.124201166990831,-0.012625287981595379
7.126979716587941,-0.00812475549455209
7.129758266185052,-8.271217803813926e-05
7.132536815782162,-0.060774310085244816
7.135315365379273,-0.0014255216530392309
7.138093914976383,-0.007660206248120813
7.140872464573493,0.002850046755065635
7.1436510141706036,-0.027894138394731927
7.146429563767714,0.008040713934857094
7.149208113364824,-0.04984061674674534
7.151986662961934,0.030078074325949455
7.154765212559044,-0.07531926144234208
7.157543762156155,-0.019514009627299714
7.160322311753266,0.0007511238663656765
7.163100861350376,0.007932053896967606
7.165879410947486,-0.02408375526392657
7.168657960544596,-0.06577579113350113
7.171436510141707,-0.020303212927020732
7.174215059738817,0.03742761234852191
7.176993609335927,0.0026122741955915286
7.179772158933037,0.02884608344105699
7.182550708530147,-0.010522527466663465
7.1853292581272585,-0.02439216035060778
7.188107807724369,0.036273930849035414
7.190886357321479,-0.01292921059597492
7.193664906918589,-0.02983562388037661
7.196443456515699,-0.0041661661625827144
7.19922200611281,0.03928250372440119
7.20200055570992,-0.032931054258796
7.20477910530703,0.023334337756391484
7.20755765490414,-0.04189335007378123
7.2103362045012505,-0.027310541909570104
7.213114754098362,0.01832973869621324
7.215893303695472,0.004770252957368622
7.218671853292582,-0.04540419535128864
7.221450402889692,0.020152401407515255
7.224228952486802,-0.025199514919096486
7.227007502083913,0.02700768641721565
7.229786051681023,0.06885325936777696
7.232564601278133,-0.06323747926037059
7.235343150875243,0.04992239898264176
7.238121700472354,0.03296080120476218
7.240900250069465,-0.01593372682538107
7.243678799666575,-0.041202758027284576
7.246457349263685,0.03246762011080058
7.249235898860795,0.0018328127428792645
7.252014448457905,-0.030561119263206257
7.254792998055016,-0.06702727181839091
7.257571547652126,0.00273379164705513
7.260350097249236,0.005119572885798912
7.263128646846347,0.057126887131788796
7.265907196443457,-0.0061325689365504445
7.268685746040568,0.040802275822619576
7.271464295637678,-0.0579678495828359
7.274242845234788,-0.02082429577199075
7.277021394831898,0.00229044193537252
7.2797999444290085,-0.014854638908311986
7.282578494026119,-0.040361767312056956
7.285357043623229,0.006345012622638641
7.288135593220339,0.012427435571760848
7.29091414281745,-0.03620513363364708
7.29369269241456,-0.010629344399165384
7.296471242011671,0.010065292430745467
7.299249791608781,-0.02833807178846541
7.302028341205891,-0.032337438473860676
7.304806890803001,-0.05327181883819934
7.3075854404001115,0.039582267089525086
7.310363989997222,0.06148594092391547
7.313142539594332,0.019952567293038265
7.315921089191443,0.043907083120141244
7.318699638788553,0.08767199340931674
7.321478188385663,0.07935015630615232
7.324256737982774,0.0854695847394349
7.327035287579884,0.056051354926927185
7.329813837176994,0.13419765966081265
7.332592386774104,0.07456112211286205
7.3353709363712145,0.27018131584045413
7.338149485968325,0.20808400486352802
7.340928035565436,0.2466170405896587
7.343706585162546,0.2864093397036989
7.346485134759656,0.31065989316751563
7.3492636843567665,0.3420945534201022
7.352042233953877,0.3189159246845376
7.354820783550987,0.2860766367329808
7.357599333148097,0.21486207878141522
7.360377882745207,0.2943317883397207
7.3631564323423175,0.1571074831222769
7.365934981939428,0.21962585577246946
7.368713531536539,0.19292074015889366
7.371492081133649,0.06623458930201342
7.374270630730759,0.15652882329185186
7.3770491803278695,0.04756214596413698
7.37982772992498,0.1000269751295242
7.38260627952209,-0.020976421178972256
7.3853848291192,0.0059033592148323745
7.38816337871631,0.04253394413048364
7.390941928313421,-0.03302454981452529
7.393720477910532,-0.0491712602644208
7.396499027507642,0.024710595177286482
7.399277577104752,0.03807743186607433
7.402056126701862,0.05204198237285103
7.4048346762989725,0.06873710682228068
7.407613225896083,0.3928471522848162
7.410391775493193,0.7346219638085618
7.413170325090303,1.0326003191355162
7.415948874687413,1.3247219707459867
7.4187274242845245,1.559270698476047
7.421505973881635,1.4937919205475712
7.424284523478745,1.365800667811547
7.427063073075855,1.0033743969754803
7.429841622672965,0.669584559332418
7.4326201722700755,0.2989080395886106
7.435398721867186,0.12417901627234457
7.438177271464296,0.0685082737544944
7.440955821061406,0.03505683711483242
7.443734370658516,-0.05468100708361577
7.4465129202556275,-0.008134091541474306
7.449291469852738,-0.027465536624621305
7.452070019449848,-0.03588225155618261
7.454848569046958,-0.06492019921514938
7.457627118644068,-0.058930728080176034
7.460405668241179,-0.027881628350575727
7.463184217838289,-0.03165320635986721
7.465962767435399,-0.01628408720292565
7.468741317032509,0.03023404759494459
7.47151986662962,0.055827911505709246
7.4742984162267305,0.05059991799430287
7.477076965823841,0.014784344611837563
7.479855515420951,0.05807864243557134
7.482634065018061,0.02196796499487941
7.485412614615171,-0.03776174115607641
7.488191164212282,0.04295303912123111
7.490969713809392,-0.0494235127574915
7.493748263406502,-0.06209878268195995
7.496526813003613,-0.031338559855654105
7.499305362600723,0.03161533657013679
7.5020839121978335,0.027685749200501715
7.504862461794944,0.026348410820507928
7.507641011392054,-0.045270001505887704
7.510419560989164,-0.0026066288039364033
7.513198110586274,-0.03766047941072717
7.515976660183385,-0.004566525397836427
7.518755209780495,-0.011469480866633963
7.521533759377605,-0.05148505804764626
7.524312308974716,-0.03329712648197914
7.527090858571826,0.0505012494457483
7.529869408168937,0.030469124764878036
7.532647957766047,-0.007357516960377225
7.535426507363157,-0.03082995775323557
7.538205056960267,0.007331391899074697
7.540983606557377,0.016124055079943182
7.543762156154488,0.029433709286118097
7.546540705751598,-0.02198319522969099
7.549319255348709,-0.03324527246849492
7.552097804945819,0.047550337089879734
7.554876354542929,0.04437891838062746
7.55765490414004,0.07111487347418632
7.56043345373715,-0.030676474284984472
7.56321200333426,-0.021542603753230145
7.56599055293137,-0.030925682525156904
7.5687691025284805,-0.016583970004736017
7.571547652125591,-0.06570496829784052
7.574326201722702,0.018027916326064142
7.577104751319812,-0.022623156377082555
7.579883300916922,0.07801195383382087
7.582661850514032,-0.034359613889814726
7.585440400111143,0.022124743489754132
7.588218949708253,0.09372639686489015
7.590997499305363,0.04208566048504459
7.593776048902473,0.04675373593054866
7.5965545984995835,0.06534283173324507
7.599333148096694,-0.010390863333156662
7.602111697693805,0.12799773563830208
7.604890247290915,0.03129416702819015
7.607668796888025,0.05876746146576532
7.610447346485135,0.07918340713900451
7.613225896082246,0.11192408198317776
7.616004445679356,0.10092161123142068
7.618782995276466,0.17740723678708845
7.621561544873576,0.2278109898289153
7.6243400944706865,0.22860927786443133
7.627118644067798,0.19891630780512798
7.629897193664908,0.2674974651623316
7.632675743262018,0.3091847613817574
7.635454292859128,0.3407032125170829
7.6382328424562385,0.38168545983923374
7.641011392053349,0.3738997038418863
7.643789941650459,0.38994095778570576
7.646568491247569,0.38384777154131566
7.649347040844679,0.382675877271645
7.6521255904417895,0.3976654766064014
7.654904140038901,0.39266703782579165
7.657682689636011,0.3940339469167166
7.660461239233121,0.33935365729110945
7.663239788830231,0.3027182333749529
7.6660183384273415,0.2815557400996541
7.668796888024452,0.25020835700000255
7.671575437621562,0.3213950980303115
7.674353987218672,0.21947215861666206
7.677132536815782,0.20545792727318787
7.679911086412893,0.19486536394039677
7.682689636010004,0.15918615681944537
7.685468185607114,0.05624440460779918
7.688246735204224,0.0648296506950718
7.691025284801334,0.049142747188664807
7.6938038343984445,0.023195845288570292
7.696582383995555,0.14743188233125135
7.699360933592665,0.025070448646671427
7.702139483189775,0.014030537864850433
7.704918032786886,0.03235046362581634
7.7076965823839965,0.09152726568694662
7.710475131981107,0.02696570829449709
7.713253681578217,-0.06852624305565452
7.716032231175327,-0.01472667984141135
7.718810780772437,0.015976227041020245
7.7215893303695475,-0.05323358363146103
7.724367879966658,0.01928492900778539
7.727146429563768,-0.05289263787425754
7.729924979160878,-0.054828150627796564
7.732703528757989,0.01566130481907968
7.7354820783550995,0.03036990564758555
7.73826062795221,0.04040785928853326
7.74103917754932,0.023494479029418387
7.74381772714643,-0.013888758678191395
7.74659627674354,0.01842712182091411
7.749374826340651,-0.03921072442178267
7.752153375937761,0.016660760909701356
7.754931925534871,0.02386416687306795
7.757710475131982,-0.027996308335175763
7.760489024729092,0.05146642638554715
7.7632675743262025,-0.008002314318280093
7.766046123923313,-0.019268862616101858
7.768824673520423,-0.07344329978138535
7.771603223117533,-0.041635322948283954
7.774381772714643,0.012724400119334123
7.777160322311754,-0.0037486038118235204
7.779938871908864,0.05245160202390778
7.782717421505975,-0.01973734860655353
7.785495971103085,-0.025986351834865286
7.788274520700195,0.07343850290879453
7.7910530702973055,-0.03488456561110698
7.793831619894416,-0.03392570658903555
7.796610169491526,-0.04286024165305935
7.799388719088636,0.06257079818334024
7.802167268685746,0.07264324087808742
7.804945818282857,0.021683191816429397
7.807724367879967,0.028890747252954083
7.810502917477078,0.0406985113526253
7.813281467074188,0.008784898237203093
7.816060016671298,-0.037292963951382624
7.818838566268409,0.048575295800184576
7.821617115865519,0.021008606794690812
7.824395665462629,0.002835307211591401
7.827174215059739,0.020712489764293834
7.829952764656849,-0.04394308785118493
7.83273131425396,-0.008975761884700489
7.835509863851071,0.012451517326226513
7.838288413448181,-0.04206357276220096
7.841066963045291,0.04954151436325926
7.843845512642401,0.003232215836793412
7.846624062239512,-0.03988089229767983
7.849402611836622,-0.044275149108725306
7.852181161433732,0.004745296000353785
7.854959711030842,0.07646804190753874
7.857738260627952,-0.017334858892955638
7.8605168102250635,-0.06223820616971852
7.863295359822174,-0.028586772884298037
7.866073909419284,-0.042535042859270976
7.868852459016394,-0.024770526299652658
7.871631008613504,-0.03700150666123183
7.874409558210615,-0.0326669644749496
7.877188107807725,-0.026056692762326656
7.879966657404835,0.04329966477192955
7.882745207001945,0.03222727363916843
7.8855237565990555,-0.06383789471671858
7.888302306196167,-0.030706641854760307
7.891080855793277,-0.004260214020593096
7.893859405390387,-0.015571794447829322
7.896637954987497,0.015410328209074363
7.899416504584607,-0.021085240345657834
7.902195054181718,0.048559978990379005
7.904973603778828,-0.004091708628848566
7.907752153375938,-0.03449623348413736
7.910530702973048,0.0004567082329500418
7.913309252570159,0.027932876889796725
7.91608780216727,0.03772181569776079
7.91886635176438,-0.06400843368216698
7.92164490136149,0.04067951157060569
7.9244234509586,0.035806393351304845
7.9272020005557104,0.07417704055390054
7.929980550152821,0.010031575609802222
7.932759099749931,0.030288982441265266
7.935537649347041,-0.03736465048773982
7.938316198944152,-0.022013694064118097
7.941094748541262,0.05662696003723554
7.943873298138373,0.04322535235251776
7.946651847735483,-0.002724096612652039
7.949430397332593,0.08217676357634611
7.952208946929703,0.019576582093837117
7.9549874965268135,-0.013170471364266207
7.957766046123924,0.07376505755343696
7.960544595721034,0.026392611132154693
7.963323145318144,-0.05861091976578102
7.966101694915255,-0.07651850624495468
7.968880244512365,-0.022447080393828544
7.971658794109476,0.05453783115656151
7.974437343706586,0.0765582719683503
7.977215893303696,0.02867715217117652
7.979994442900806,0.03921036443637628
7.9827729924979165,-0.02201773709161062
7.985551542095027,0.04382836279268489
7.988330091692137,-0.04692460889075195
7.991108641289248,-0.042467460702874923
7.993887190886358,0.01336013791153687
7.9966657404834685,-0.08172303913954057
7.999444290080579,9.8535774081869e-05
8.002222839677689,0.0977886803400946
8.005001389274799,0.03435587438639448
8.00777993887191,-0.055646937189922266
8.01055848846902,-0.03160622431780894
8.01333703806613,-0.0038724745310965386
8.01611558766324,-0.03162719397007048
8.01889413726035,0.08633469949814483
8.02167268685746,0.06294278696648925
8.02445123645457,-0.045607029662207366
8.02722978605168,-0.01755686221445582
8.030008335648793,-0.07243879437497071
8.032786885245903,0.05655743353562196
8.035565434843013,0.06280078448062287
8.038343984440123,0.00937060849515065
8.041122534037234,0.016130877931941144
8.043901083634344,-0.09491823665549803
8.046679633231454,0.01652744480260428
8.049458182828564,-0.011610329107271966
8.052236732425675,-0.0012591130275323137
8.055015282022785,0.001717158175531998
8.057793831619895,0.00714724387213265
8.060572381217005,0.036114993770844185
8.063350930814115,0.1031925598373491
8.066129480411226,-0.024119340588747363
8.068908030008336,0.026884172746965716
8.071686579605446,-0.024721094348657557
8.074465129202556,-0.026616453074517505
8.077243678799666,0.0004642679616818469
8.080022228396777,-0.010074053307498245
8.082800777993889,0.0036511111151662583
8.085579327590999,0.007613167934314017
8.088357877188109,0.0023235579163312335
8.09113642678522,-0.0028350349297474185
8.09391497638233,0.018759633560526064
8.09669352597944,0.00374398938738546
8.09947207557655,0.0669400607393555
8.10225062517366,0.03785497869988737
8.10502917477077,-0.06349986510321971
8.10780772436788,0.04049982576710331
8.11058627396499,0.01002507142029222
8.113364823562101,0.06877719578283488
8.116143373159211,-0.0293455082840621
8.118921922756321,0.030809006867504613
8.121700472353432,-0.05650597160830892
8.124479021950542,0.0970011825196827
8.127257571547652,-0.005814721386587135
8.130036121144762,0.009490896794421137
8.132814670741872,0.03555012049647141
8.135593220338984,-0.02676197324227604
8.138371769936095,0.006942812441130557
8.141150319533205,0.030070025439924496
8.143928869130315,0.007302290418109175
8.146707418727425,0.047841354796642054
8.149485968324536,-0.022390242701620627
8.152264517921646,0.03529404912393134
8.155043067518756,0.044488416805796904
8.157821617115866,-0.011463645500687021
8.160600166712976,-0.01183941496697006
8.163378716310087,-0.0009822252328096502
8.166157265907197,0.04314869789585561
8.168935815504307,-0.0589229117864579
8.171714365101417,0.08342918199837727
8.174492914698527,0.05855730025123046
8.177271464295638,-0.017132714225232853
8.180050013892748,-0.036018142083264613
8.182828563489858,0.010842660921296146
8.18560711308697,0.09988462206308053
8.18838566268408,0.11139419261893847
8.19116421228119,-0.060221592278194715
8.1939427618783,0.01903523165950313
8.196721311475411,0.04467510597242515
8.199499861072521,-0.02026280896368431
8.202278410669631,-0.05068665810459853
8.205056960266742,0.007536035303957104
8.207835509863852,-0.02719528259501131
8.210614059460962,-0.03563390058739014
8.213392609058072,-0.1662947580118669
8.216171158655182,0.061929659639704
8.218949708252293,-0.007440582047713823
8.221728257849403,-0.05541757863001962
8.224506807446513,-0.015957871458746803
8.227285357043623,-0.06502770294411028
8.230063906640734,0.006426690062922263
8.232842456237844,-0.06361429946774458
8.235621005834954,0.03699702302337372
8.238399555432066,-0.02362619412636271
8.241178105029176,0.04911126245448088
8.243956654626286,-0.0019910167665477367
8.246735204223397,0.01686702873789173
8.249513753820507,0.02343129157163151
8.252292303417617,0.008226374379389978
8.255070853014727,-0.007751109448388169
8.257849402611837,0.02371383771018662
8.260627952208948,-0.04607534369227855
8.263406501806058,0.043631706134190366
8.266185051403168,-0.015933067779975198
8.268963601000278,0.017982738745394272
8.271742150597388,0.06564372995484642
8.274520700194499,0.027210740625927588
8.277299249791609,0.07632514788603126
8.28007779938872,-0.002423006312598077
8.28285634898583,0.02353139484988047
8.28563489858294,-0.002134907387441877
8.28841344818005,0.004122185588310738
8.291191997777162,0.0035378327253258375
8.293970547374272,-0.02408439918245381
8.296749096971382,-0.08487364894556843
8.299527646568492,-0.006486763061318065
8.302306196165603,0.058845838214697084
8.305084745762713,0.005717124466478076
8.307863295359823,-0.11573548439334232
8.310641844956933,0.05925994860505089
8.313420394554043,0.0042335916912473875
8.316198944151154,0.005973400218408313
8.318977493748264,0.05255906980037243
8.321756043345374,0.01806480258345016
8.324534592942484,-0.014707915474559758
8.327313142539595,0.00027434392647912836
8.330091692136705,-0.03303249923318746
8.332870241733815,-0.07308738657334492
8.335648791330925,-0.010632543569607371
8.338427340928035,-0.06024956652463624
8.341205890525147,0.02025045847372626
8.343984440122258,0.0320618417782632
8.346762989719368,-0.01188922714462907
8.349541539316478,-0.04262926049044737
8.352320088913588,0.024921624905106833
8.355098638510698,-0.00016259375769356787
8.357877188107809,0.018203192883134017
8.360655737704919,-0.08022471470218513
8.363434287302029,-0.0055764265036881335
8.36621283689914,0.021418375659014516
8.36899138649625,-0.05187428843959703
8.37176993609336,-0.050840627117341775
8.37454848569047,0.04304398058135509
8.37732703528758,-0.08769387220307161
8.38010558488469,0.000800408967809634
8.3828841344818,-0.045135065480427033
8.38566268407891,0.019779859267901323
8.388441233676021,-0.0280111593288223
8.391219783273131,-0.06294743739013697
8.393998332870243,0.029485833303848432
8.396776882467353,0.11385263187642167
8.399555432064464,-0.03788523101456869
8.402333981661574,0.024985594311387617
8.405112531258684,0.03369423287228454
8.407891080855794,0.03851927694634927
8.410669630452904,0.034843461360789876
8.413448180050015,-0.0037760214155522476
8.416226729647125,-0.0040465313143475835
8.419005279244235,-0.07575909226694227
8.421783828841345,0.002678609654802196
8.424562378438456,0.0036186916998770064
8.427340928035566,-0.05297799358771989
8.430119477632676,-0.004628815626672532
8.432898027229786,0.0016741854731120232
8.435676576826896,0.07321512690398511
8.438455126424007,0.004224229074069653
8.441233676021117,-0.004954045804137717
8.444012225618227,-0.0590724696430897
8.446790775215339,0.03591551177309751
8.44956932481245,0.02322860235607475
8.45234787440956,-0.07176369789495088
8.45512642400667,-0.023411615909360504
8.45790497360378,0.06020588699924348
8.46068352320089,0.02563102599070551
8.463462072798,0.008053191805408595
8.46624062239511,0.036808584617076416
8.46901917199222,-0.016898746724536486
8.471797721589331,-0.004229126115650308
8.474576271186441,-0.08768318631627742
8.477354820783551,-0.0557916944246401
8.480133370380662,0.0018211476746936414
8.482911919977772,0.03047248178599407
8.485690469574882,0.05890077600932105
8.488469019171992,0.02013016148144907
8.491247568769102,-0.027588010345024956
8.494026118366213,0.0401633215135826
8.496804667963325,-0.00032317993419895153
8.499583217560435,0.07154080573778024
8.502361767157545,-0.05057154984731119
8.505140316754655,-0.012400873241461496
8.507918866351766,0.05606913507419846
8.510697415948876,-0.02604422192346584
