0.001522
-0.015799
-0.041253
-0.015996
-0.022508
-0.013046
-0.066037
0.048940
0.009880
-0.060473
-0.066382
-0.078636
-0.043253
-0.006319
0.054276
-0.064486
-0.007328
0.042332
0.059390
-0.038745
0.057965
-0.043690
-0.017712
0.005928
-0.026965
-0.025705
-0.030305
-0.066079
-0.004819
0.140455
-0.018547
0.001990
0.030887
0.002070
0.084060
0.023663
0.013030
-0.053589
0.048264
0.036273
0.002286
0.065660
0.069896
-0.040429
0.071131
0.112280
0.121792
0.138241
0.175297
0.229294
0.238300
0.195592
0.264019
0.283338
0.335508
0.299598
0.367774
0.268094
0.273437
0.323581
0.209999
0.143351
0.070466
0.043257
0.050047
0.013037
0.047896
0.073656
-0.002673
0.021348
0.076567
-0.024238
0.066033
0.061014
0.188648
0.421667
0.760422
1.130357
1.394885
1.591151
1.565461
1.225312
0.824375
0.543721
0.313578
0.180404
0.099856
0.009709
0.053548
-0.011188
-0.042603
0.043115
-0.040766
-0.052908
-0.074420
0.030716
-0.003853
0.015086
0.009923
0.039092
-0.011313
0.030638
0.062038
-0.028081
0.038584
0.035944
-0.033741
-0.006180
0.040374
-0.008818
-0.060485
-0.015269
0.004558
-0.046625
0.023266
-0.002078
0.015998
0.060435
0.004608
-0.036479
-0.018514
-0.007245
-0.051822
-0.012216
0.047860
-0.053927
-0.039866
-0.031463
-0.011208
-0.014384
-0.027554
0.004229
0.040061
-0.035590
0.032102
-0.027870
-0.034532
-0.009923
0.055669
-0.042289
0.054014
-0.021934
-0.050918
0.078317
0.058878
-0.005941
0.096046
0.109972
0.041494
0.158939
0.157167
0.169193
0.186331
0.137702
0.231914
0.311244
0.344527
0.350877
0.346611
0.366328
0.465110
0.457637
0.423276
0.428718
0.400145
0.381375
0.414282
0.319480
0.330988
0.264812
0.220983
0.212339
0.163915
0.189551
0.099650
0.136963
0.061718
0.088591
0.057903
-0.031985
0.004750
-0.050128
0.021379
-0.001281
-0.018388
-0.045604
-0.066568
-0.000467
-0.002691
0.042069
-0.055490
-0.024758
-0.107227
0.043535
0.015342
0.007246
-0.007713
0.045081
-0.023137
0.066359
-0.010532
-0.036514
-0.036935
0.015224
-0.061392
0.039492
-0.002677
-0.007473
-0.031104
-0.035117
0.010321
0.031244
-0.008706
-0.031520
-0.033724
-0.014076
-0.031439
-0.050989
0.041959
-0.045609
0.023785
0.002366
0.040298
-0.089158
-0.061733
0.053545
-0.007583
0.049649
0.008180
0.014699
-0.042120
-0.009682
0.006894
-0.042055
0.056843
0.058968
0.050994
0.021748
0.015961
-0.045974
0.028083
-0.032270
-0.038652
0.000621
-0.025781
-0.052610
0.000093
0.085562
-0.022612
0.009704
-0.119398
0.008912
-0.034447
-0.023287
0.060151
0.029149
0.025469
0.046299
-0.081585
-0.019929
0.009220
0.084844
-0.012714
-0.029045
-0.017577
-0.009058
-0.006504
-0.015945
-0.023121
0.065295
-0.028186
-0.043711
-0.026053
0.037806
-0.081876
-0.002471
-0.028809
0.040042
-0.029894
0.007450
0.021276
-0.006771
-0.039894
-0.046217
-0.008550
-0.043907
-0.050094
0.034562
0.081152
-0.002506
-0.010830
-0.007881
-0.067165
0.041077
0.089661
0.006177
0.022809
0.003146
-0.010112
-0.061551
0.056237
-0.038193
-0.000666
0.082040
-0.006245
-0.029770
-0.019781
-0.008848
0.007653
-0.028993
-0.012982
-0.004568
0.005475
0.026126
-0.051351
0.019250
-0.063436
-0.044246
-0.004630
0.016369
-0.049780
0.003937
0.020397
-0.000794
0.001176
-0.004024
0.087685
0.000132
0.119530
0.045481
-0.003817
-0.045247
0.057740
0.004028
-0.062898
-0.022291
-0.081409
0.058953
-0.041092
-0.054249
-0.090625
-0.018796
0.049336
0.024602
-0.008724
0.017700
-0.014857
-0.059709
0.031450
-0.034463
-0.052144
-0.015748
-0.071797
-0.013360
-0.019388
-0.029909
0.001185
-0.039340
-0.031840
0.023008
-0.027439
-0.049995
-0.048154
-0.029403
-0.030855
0.008810
-0.075777
0.058486
0.077307
0.061836
0.003224
0.006002
0.040474
0.067951
0.041926
0.075547
-0.031428
-0.026798
-0.011803
-0.006068
-0.096506
-0.019876
-0.051778
0.013243
0.000093
-0.124590
-0.021222
-0.014164
0.016002
-0.013951
0.001722
0.000071
-0.054189
-0.093893
0.044277
-0.054133
-0.002111
-0.046683
-0.016199
0.005734
0.033286
0.019536
0.002781
-0.036367
-0.086520
-0.026723
-0.034643
-0.043163
-0.013185
0.003494
-0.030604
0.003153
0.038744
-0.121280
0.059374
0.059578
0.004024
-0.017279
-0.024708
0.018737
0.001837
-0.072231
0.108234
-0.012404
0.121635
-0.021605
0.026800
0.050941
-0.009046
0.076298
0.028351
-0.050228
0.011548
-0.014271
0.051256
-0.029858
0.006553
0.004571
0.011017
0.011655
0.017106
-0.007673
0.039505
-0.030958
-0.001998
-0.097684
-0.022705
-0.046069
0.017986
0.011984
-0.012762
-0.042017
0.031202
0.014415
-0.003302
0.007422
0.031929
0.006033
0.058249
-0.008584
0.011315
-0.016428
0.025115
0.008938
-0.034683
0.004728
0.032898
-0.036519
-0.017700
0.042939
0.024199
-0.002014
0.031564
0.051047
0.082375
0.016763
0.093276
0.057623
0.165329
0.128377
0.195416
0.234566
0.207376
0.227135
0.321343
0.297948
0.329177
0.350774
0.316097
0.138868
0.226885
0.188591
0.146881
0.167817
0.042690
0.051620
0.068525
0.008649
0.087159
0.040201
-0.006217
0.010265
-0.022824
-0.025500
0.030279
0.119797
0.281076
0.434907
0.758446
1.161607
1.464845
1.599839
1.503594
1.155761
0.884596
0.470966
0.297069
0.134613
0.029490
-0.001218
-0.059501
-0.089859
-0.055677
-0.014906
0.043942
0.012551
-0.018628
0.001952
0.030067
0.013743
0.019979
0.074261
0.060680
0.066657
0.032782
0.023814
-0.054774
0.033804
-0.050556
-0.000613
0.027550
0.051905
-0.011566
-0.022656
-0.050305
0.107493
0.036616
-0.016777
-0.023141
-0.039029
0.028805
-0.018077
-0.061454
0.050871
0.007972
0.003488
-0.048853
-0.025433
0.022497
-0.056807
0.041159
-0.015667
-0.015480
-0.102405
0.063091
-0.040885
0.009783
0.013311
0.064924
0.035934
0.063726
-0.023634
-0.003961
0.010904
0.044220
-0.023923
0.013163
-0.009754
0.056749
0.054761
0.008891
0.096835
0.161540
0.148102
0.179289
0.208688
0.299581
0.178560
0.265635
0.363346
0.336799
0.346805
0.469855
0.446584
0.428600
0.393485
0.339530
0.356161
0.344812
0.390012
0.255754
0.220785
0.240146
0.229838
0.183740
0.113226
0.120789
0.104069
0.109101
0.058928
0.002039
0.007799
0.042477
-0.088012
0.089420
-0.043994
0.045778
-0.083519
-0.003662
-0.023881
0.000852
-0.029118
0.030318
-0.028967
0.098683
-0.007570
0.004456
0.031522
-0.040629
-0.024203
-0.050473
-0.055234
-0.003105
-0.015333
0.030174
0.003289
-0.058281
0.050717
0.040147
0.067682
0.039754
0.056773
0.022597
0.073426
0.055634
0.032424
-0.002197
-0.047118
-0.033283
0.064258
0.045637
-0.046747
-0.013714
-0.030296
-0.008588
-0.004335
0.006697
-0.001252
0.060254
-0.011018
-0.063624
-0.006171
-0.032806
-0.069105
-0.075329
0.043925
-0.006566
0.001858
-0.012195
-0.002627
0.005108
-0.013348
-0.015941
0.042609
0.018531
0.017960
-0.072532
-0.037288
0.047727
-0.039730
0.041550
-0.082535
0.048040
-0.020528
-0.044699
-0.002793
0.029634
0.028735
-0.001675
0.003264
-0.032169
0.017312
-0.013511
-0.001881
0.044331
-0.003571
-0.044260
-0.054014
0.078498
0.064191
0.043127
0.017346
-0.000358
0.022122
-0.021163
0.063847
-0.021787
-0.063876
-0.001690
0.021645
-0.007160
-0.018954
-0.015146
0.053170
0.029610
0.022616
-0.003097
0.009130
-0.002275
-0.044490
0.017001
-0.040685
0.011345
-0.018031
0.046285
-0.069618
-0.076807
-0.024425
0.090801
0.006091
-0.037363
0.004012
0.026538
0.045616
0.025082
-0.048435
0.026783
-0.060156
-0.063232
0.056715
0.007242
-0.023503
-0.010764
0.002663
0.007384
-0.026379
0.050716
-0.015797
0.039514
0.062099
-0.061081
0.012198
0.061684
-0.017759
0.001070
0.050559
0.040612
0.065122
0.038558
-0.051294
0.035991
0.039146
-0.010156
-0.030468
-0.082449
0.018552
-0.046269
0.022911
-0.019246
-0.036107
-0.046727
0.036567
-0.025426
-0.017074
-0.043151
0.027276
-0.074693
-0.007776
0.006787
-0.003723
-0.035813
-0.006983
0.004026
0.008506
-0.058842
0.046040
-0.023615
0.021454
0.066863
0.014295
-0.044252
-0.003461
-0.029902
-0.009147
0.045326
-0.062334
0.002588
0.057152
0.047121
0.036062
-0.033187
0.005697
0.044981
-0.034308
0.006354
0.019846
-0.014674
0.061520
0.091937
-0.065494
0.042640
-0.031156
0.010562
-0.004843
-0.069959
0.031384
0.052800
0.003153
-0.016221
0.006400
-0.022498
-0.016882
-0.020076
-0.029821
0.037905
0.033161
-0.062376
-0.000623
0.019477
0.037604
-0.039702
0.034985
-0.066635
0.007306
-0.014733
0.000610
-0.025856
-0.062934
0.007763
-0.034428
0.001566
0.059341
-0.020178
0.027477
-0.024032
-0.084377
0.010859
-0.008034
0.006653
0.082578
0.083183
-0.062466
0.003092
0.004075
0.034711
0.026502
-0.008197
0.038232
0.036452
0.025357
-0.036816
-0.019365
0.064433
-0.042744
0.069085
-0.007182
-0.005823
0.002939
-0.026841
0.006714
0.021823
-0.012290
-0.017985
0.087655
-0.027857
-0.010036
0.006080
-0.018589
-0.044395
0.021386
0.009021
-0.044428
-0.025246
-0.049909
0.027664
0.030951
0.005092
0.029862
0.038140
0.007571
0.052129
0.036741
0.050618
-0.076137
0.003126
0.010936
0.031758
-0.054788
0.053967
0.011094
-0.011141
0.032132
0.060614
0.014010
0.025323
-0.022979
0.005561
0.106892
0.027696
0.075793
0.176247
0.124798
0.157707
0.191981
0.271800
0.256591
0.301445
0.255199
0.321124
0.293269
0.268607
0.228060
0.184316
0.211386
0.145245
0.146902
0.136338
0.086104
0.099153
0.047424
0.090827
0.045124
-0.000304
-0.027150
0.022722
0.069129
0.011753
0.131922
0.223037
0.451785
0.845751
1.207280
1.509094
1.579892
1.416273
1.136729
0.772506
0.359833
0.178579
0.199515
0.042436
-0.010719
0.037582
-0.013075
-0.019347
0.008686
0.041544
0.001380
0.050243
-0.021872
-0.044701
0.039554
0.047200
0.010886
0.023410
0.056402
-0.045802
0.007134
-0.106850
0.009953
-0.048073
0.011638
-0.028788
-0.038770
0.000682
-0.046957
-0.022108
-0.019251
0.014301
0.058328
0.003082
-0.057653
0.047993
-0.022607
-0.013710
0.015162
0.031098
-0.024329
0.018440
-0.127782
0.109116
0.008595
-0.077621
0.008599
0.002834
-0.062323
0.005004
-0.039215
-0.030796
-0.062390
0.031067
-0.000365
-0.002497
0.035539
-0.024754
0.039205
-0.010136
-0.017593
0.029350
-0.013551
0.113172
0.086434
0.142375
0.215663
0.182837
0.163089
0.210119
0.222889
0.276328
0.228547
0.302519
0.363064
0.305500
0.364548
0.391309
0.449498
0.407874
0.381344
0.339019
0.407198
0.399600
0.323220
0.287990
0.253892
0.223340
0.195392
0.147319
0.105534
0.172438
0.187540
0.032749
0.082445
0.095607
0.044616
0.085227
0.038522
0.010427
-0.067054
0.028386
-0.010239
-0.014140
0.006235
-0.021307
-0.036153
-0.030613
-0.046887
-0.021954
-0.067154
0.011174
-0.012926
-0.005036
0.000567
0.015857
0.007636
-0.008830
0.093100
-0.051857
-0.046582
0.013260
0.055338
0.032154
0.040897
-0.048934
0.004357
0.014692
-0.003947
-0.006693
-0.060058
0.003783
0.018363
-0.000136
0.056114
0.009947
-0.008126
0.003369
-0.022378
0.042359
0.009835
-0.025124
0.078427
-0.015945
-0.006117
-0.010382
0.018571
0.019651
0.034797
0.001522
0.069045
0.065800
-0.026130
0.035344
-0.043859
-0.031254
0.014760
-0.036459
-0.029285
0.010452
-0.041439
0.031113
-0.060976
0.047568
-0.041453
0.014559
-0.023805
0.011612
0.080373
-0.044529
-0.068867
-0.012171
0.028141
-0.055655
0.018344
0.083483
0.004029
0.044537
-0.054806
0.086320
0.085433
-0.038324
0.041305
-0.030765
-0.010456
0.069096
-0.008678
-0.033035
-0.007060
-0.018909
0.061757
0.063053
0.000888
-0.036862
0.025530
-0.066827
0.059856
-0.053908
0.014429
0.033351
0.063688
-0.020504
0.012075
0.080763
0.021166
-0.025107
0.034398
0.033457
-0.017801
-0.026926
0.015728
-0.007009
-0.011305
0.003267
-0.004324
-0.007819
-0.052675
0.030085
-0.064269
0.084682
0.051105
0.026755
-0.019402
-0.035337
0.015254
0.021264
-0.008327
-0.003435
-0.015882
0.020629
0.066308
-0.066240
0.039527
-0.007983
-0.017204
0.014298
0.035045
0.080135
-0.013644
-0.015631
-0.019307
-0.004111
-0.005314
0.020581
-0.052605
-0.009949
-0.059104
-0.007328
-0.005633
-0.010734
0.042119
0.095008
0.074971
0.046520
0.033235
0.044589
-0.055206
0.034574
-0.018059
-0.051705
0.055708
0.012139
0.096862
0.016996
0.032536
-0.031307
-0.020763
-0.015875
0.015444
-0.004687
0.011330
0.074029
-0.042568
-0.017303
0.033750
0.031762
-0.097489
-0.005133
-0.055150
0.051710
-0.003041
0.024959
-0.006725
-0.009543
0.070660
-0.006746
0.026556
-0.000924
0.043697
-0.011307
0.092210
0.014729
-0.057833
-0.048833
0.080745
-0.001875
-0.011679
-0.093344
0.016760
-0.028321
-0.021799
-0.008858
-0.026544
0.018068
-0.003341
0.059361
-0.010493
-0.036045
-0.024272
-0.004711
0.001270
0.039461
-0.060562
0.020127
-0.023373
-0.026782
-0.018605
-0.072797
-0.002935
-0.005853
0.029349
-0.057068
-0.028278
0.052664
0.033497
0.045709
0.013753
0.030561
0.045751
-0.083711
-0.066776
0.017769
0.070959
0.043545
-0.010340
0.065926
0.066789
-0.008007
0.056778
-0.039565
0.003149
0.042615
-0.032328
-0.012957
-0.027372
-0.014280
-0.018559
0.002221
0.042664
0.006716
0.073093
-0.028506
-0.007831
0.023634
-0.041023
0.017996
0.064044
-0.001027
-0.040771
0.027897
0.027866
0.033983
-0.011354
0.037740
-0.021797
0.008989
-0.056133
-0.047241
-0.023104
0.025825
0.029341
0.070120
0.004860
-0.016016
-0.032269
0.071034
0.054147
-0.033954
0.014711
0.046003
0.025955
0.011243
-0.040855
-0.015858
-0.015951
-0.041011
-0.072924
0.015659
0.125878
-0.028364
0.070668
-0.016470
0.059151
0.093813
0.121420
0.063557
0.095853
0.192273
0.228465
0.268499
0.256772
0.318569
0.397223
0.345944
0.291228
0.299663
0.227508
0.290629
0.176829
0.118423
0.162788
0.082862
0.032403
0.037926
0.015334
-0.005228
0.022902
0.007647
-0.004110
-0.102748
0.008873
0.106143
0.183510
0.282687
0.500769
0.877931
1.244420
1.498791
1.649516
1.493005
1.113645
0.672131
0.433573
0.193254
0.134419
0.050797
0.033699
-0.001264
-0.033050
-0.063807
0.030684
0.001091
0.030313
-0.012171
-0.006891
-0.099422
0.016075
-0.030060
-0.044516
-0.028076
0.014917
0.004634
0.067470
-0.042701
0.135845
-0.027973
0.018846
-0.022133
-0.017222
0.009241
-0.045298
-0.041030
0.069407
-0.068942
-0.022259
-0.045791
0.009263
0.013909
0.025946
-0.057189
0.013899
0.064233
0.062101
0.015174
-0.024999
0.018386
-0.072141
-0.012896
0.027861
0.011374
-0.015014
-0.030818
0.026634
0.012039
-0.020916
0.051927
0.043491
0.008907
0.017729
0.030466
0.067884
0.007942
0.079272
0.080171
-0.033481
0.010794
0.128592
0.118878
0.084754
0.138425
0.164099
0.196491
0.169104
0.230463
0.231214
0.282858
0.315088
0.396689
0.366145
0.398314
0.384102
0.398277
0.404745
0.316497
0.346156
0.275509
0.393571
0.353208
0.243925
0.263659
0.206033
0.180655
0.160056
0.162444
0.135641
0.112463
0.030134
0.027864
0.004471
0.066508
-0.004652
0.042954
0.001603
0.068524
0.091909
-0.012522
-0.040093
0.009480
-0.058460
-0.052294
-0.006357
0.017286
-0.068804
-0.005095
0.002871
-0.036838
0.013760
-0.017191
-0.010258
0.040652
-0.031277
-0.034224
-0.037631
0.012340
-0.081301
0.019372
0.008539
-0.037036
0.004249
0.030170
-0.030275
-0.044170
-0.000198
0.016635
0.037049
0.042553
-0.030560
-0.013239
0.039362
0.003123
-0.016507
0.062887
-0.030324
-0.061789
0.017434
-0.032040
0.001700
0.024265
-0.081101
0.032492
0.007974
-0.007006
-0.038434
0.008503
0.063878
0.071146
0.016333
-0.022490
-0.007247
-0.076012
0.044551
0.010851
0.019015
-0.067091
0.051516
0.032713
0.004336
0.083860
-0.039583
0.020015
-0.008739
-0.019799
0.044882
-0.041366
-0.015463
0.009805
0.008485
-0.016718
-0.002860
-0.010403
0.053008
0.063161
-0.013769
0.028834
-0.028728
0.047309
-0.009958
-0.007271
-0.034644
0.056735
-0.002076
0.025954
0.021093
-0.062839
0.015491
0.057054
-0.032926
-0.049288
-0.019190
0.065995
0.004376
-0.058348
-0.036102
-0.000057
0.011659
-0.027907
-0.018606
0.053803
-0.025222
-0.041494
0.064566
0.023780
-0.017359
-0.050383
-0.007238
-0.018942
0.025678
0.026093
-0.029729
0.022151
-0.012587
-0.061564
0.015047
0.075575
0.028934
-0.010665
0.091484
-0.007048
0.017875
0.042247
-0.004453
-0.063173
0.017786
-0.067607
0.002401
0.004884
0.068438
-0.021638
-0.036500
-0.028824
0.059332
0.023943
0.016217
0.011613
0.026718
0.042945
-0.022552
-0.086009
-0.005724
-0.038032
0.076775
-0.001695
-0.070828
0.026209
0.002685
0.072516
-0.038098
0.086286
0.042675
-0.010420
-0.020699
-0.015463
-0.037271
-0.031501
-0.010860
-0.058755
0.007781
0.034448
0.000637
0.015466
-0.020119
-0.069183
0.033132
-0.023245
-0.017782
0.035404
0.013109
-0.040272
0.057388
-0.031474
-0.027646
0.049743
0.039594
0.017484
0.042096
-0.032643
-0.013430
-0.062385
-0.009400
0.051341
0.056435
-0.039558
-0.038415
-0.021082
-0.056376
0.028597
-0.011734
-0.028646
0.016363
0.034919
0.014913
0.043845
-0.027217
0.050899
-0.068532
0.016465
-0.080148
0.054346
0.014300
0.043977
0.029804
-0.075636
-0.009846
-0.043340
0.011725
-0.030606
0.062917
0.001270
-0.036679
0.033376
0.003448
-0.048761
-0.015735
-0.019408
-0.032833
0.032537
0.078087
0.058393
-0.022409
-0.034316
-0.012748
0.016728
0.030985
-0.015478
0.002324
0.007642
0.082160
0.029048
0.031188
0.016584
0.020404
0.064993
0.054577
-0.020210
0.037224
-0.087843
-0.007901
0.006958
0.033208
-0.043117
-0.006384
0.007999
-0.086766
0.038930
-0.004861
-0.011645
0.049832
-0.041074
0.029493
0.054167
0.026849
0.011174
-0.069329
-0.012116
-0.048091
-0.025128
-0.045719
0.058386
-0.007889
0.015882
-0.054878
-0.065742
-0.020412
0.021969
-0.015774
0.006047
0.035789
0.049795
0.006729
0.011050
0.024153
0.044473
-0.048826
0.043507
-0.076085
0.052518
0.001657
-0.008534
0.042117
0.005936
-0.007533
-0.006494
0.008353
0.004942
0.082291
0.049951
0.115760
0.147065
0.179267
0.277416
0.194891
0.251214
0.246202
0.337870
0.325659
0.256917
0.395745
0.261552
0.237959
0.254294
0.210721
0.112650
0.024513
0.076767
-0.003242
0.089900
0.095983
0.048958
-0.050993
0.018104
-0.002410
0.120593
-0.053081
0.028981
0.138444
0.306221
0.500380
0.857480
1.317373
1.491663
1.641496
1.444856
1.089435
0.655887
0.402181
0.178210
0.097313
0.070458
0.002528
0.055355
0.087370
-0.056130
-0.038857
0.036363
-0.035930
0.008501
-0.038317
0.019673
-0.024491
0.043321
0.033498
0.045150
-0.025671
-0.021339
-0.030025
0.017481
0.041587
0.004893
-0.008064
-0.056169
0.060104
0.012354
0.006658
-0.009573
-0.038077
0.021782
-0.032204
0.000889
0.026614
-0.040228
-0.019259
-0.004534
0.002464
-0.093837
0.057483
-0.078136
-0.021128
0.061708
-0.003679
0.003622
-0.022752
-0.029397
0.025849
0.016603
-0.008665
0.067716
-0.034421
0.008987
-0.014233
0.005271
0.030884
0.033481
0.018796
0.004157
0.065806
0.055269
0.023604
0.104710
0.074672
0.103849
0.148956
0.128694
0.068141
0.240670
0.127479
0.208922
0.274971
0.352690
0.303055
0.403006
0.417028
0.309288
0.383457
0.334395
0.397527
0.376106
0.391968
0.354639
0.350202
0.322065
0.302324
0.281902
0.147008
0.134985
0.193466
0.071225
0.098308
0.025667
0.050384
0.077829
-0.030216
0.012233
0.077836
0.032637
0.021086
0.040674
0.008425
0.081685
-0.041730
-0.037439
0.012159
0.021910
-0.011799
-0.000890
0.022663
0.018613
-0.033913
-0.058664
-0.029455
-0.025260
0.063418
0.091725
0.038706
0.031959
0.005268
-0.038032
0.052203
-0.024962
0.077590
0.022324
-0.008904
-0.010804
-0.014219
0.000315
0.055619
-0.118905
-0.048314
0.039694
0.035209
0.015274
-0.022385
-0.028580
-0.011261
-0.011634
0.051839
0.005079
-0.029240
0.044298
-0.069948
-0.057038
0.040978
0.036231
-0.063566
0.008399
0.018427
-0.020989
0.018800
-0.024447
0.033048
0.036880
-0.001867
0.000013
-0.039757
-0.010752
0.049022
-0.041862
-0.008501
-0.023220
-0.028167
-0.010803
-0.015647
-0.014148
-0.034353
0.081801
-0.037320
-0.006840
-0.014201
-0.069312
0.025750
0.007733
-0.095532
-0.021059
0.012214
0.021190
-0.006322
-0.016269
-0.001089
0.085765
0.025741
0.014538
0.037061
-0.008107
-0.018743
0.034065
0.021332
0.025893
0.018843
0.064739
0.038594
-0.060822
0.006723
0.016509
-0.009265
-0.012736
-0.006536
0.073888
-0.071816
0.022918
0.035580
-0.023479
0.025660
-0.054428
-0.031154
0.035798
0.017635
0.031760
-0.048868
-0.043205
-0.013669
0.010700
-0.029953
-0.062917
0.005908
-0.036609
-0.046054
0.068000
0.030636
-0.013680
0.027314
-0.041222
0.005502
-0.020279
0.000999
-0.046008
0.065215
-0.054088
-0.052846
0.019616
0.042551
-0.000680
-0.001357
0.009185
-0.018777
0.002460
0.005586
0.031680
0.000210
-0.003009
0.008666
0.065859
-0.068655
-0.009740
-0.037604
0.026457
0.023483
0.021303
-0.000713
0.058975
0.001835
0.084197
-0.027141
-0.031677
0.024979
-0.013040
0.008184
0.017950
-0.041991
-0.020312
-0.046883
-0.017050
0.047716
0.020384
-0.012150
-0.038568
-0.055713
-0.061186
0.027018
0.025215
0.015652
0.078828
0.005282
0.023322
0.008726
0.025043
-0.031349
-0.003093
-0.066362
-0.008800
-0.026777
0.051235
-0.014430
0.016068
0.004898
0.011157
-0.043093
0.025858
0.030069
-0.008900
-0.034398
-0.007341
0.004671
-0.060291
-0.016616
0.044197
0.001609
0.085760
0.000732
0.020722
0.023004
0.004203
-0.025303
0.099950
-0.001569
-0.026084
0.043337
-0.004179
0.010603
0.022393
0.063646
0.035898
-0.043469
0.031651
-0.040096
0.010004
0.044565
-0.042359
0.000985
-0.029081
0.028054
-0.012655
0.023722
0.032352
0.005573
-0.005990
-0.024080
0.012577
0.015272
-0.098649
0.032931
0.014521
0.065638
-0.011628
-0.000680
-0.009867
0.049122
0.007339
-0.009960
0.019545
0.024366
-0.015541
0.014940
0.025930
-0.002845
0.051066
-0.006673
0.037666
0.114074
0.023097
-0.014437
-0.032422
-0.036363
-0.019675
0.038134
-0.035832
-0.035470
-0.016221
0.029862
0.041719
-0.046862
-0.057072
-0.000431
-0.009697
0.013356
-0.024440
-0.007704
0.001367
0.032253
0.053432
-0.077834
-0.019290
-0.005621
-0.014103
-0.006067
0.038222
0.074236
-0.041307
-0.055742
-0.011746
-0.053157
-0.016117
-0.039745
0.001978
0.048487
0.039911
0.010140
0.046969
0.057161
-0.012196
0.119138
0.147029
0.132406
0.168441
0.262888
0.311246
0.293394
0.230544
0.316985
0.264547
0.290850
0.251574
0.193191
0.210840
0.180857
0.161328
0.068884
0.040967
0.103266
0.041271
0.088134
0.012635
-0.031782
0.029474
0.012768
-0.013560
0.044496
0.102290
0.203855
0.382397
0.618879
0.940166
1.302092
1.467975
1.637152
1.337755
1.005696
0.606608
0.361365
0.118989
0.076923
0.075380
-0.033401
-0.022454
0.005614
-0.016277
-0.031200
0.033989
0.137703
0.032935
0.028021
0.012260
0.073527
0.016195
0.080146
-0.013495
0.052858
-0.016922
0.057478
0.005011
0.015843
0.047228
-0.029343
-0.003278
-0.023966
-0.020197
0.022293
-0.039862
0.013890
0.050672
-0.007880
-0.097930
-0.002330
0.002548
0.011619
0.011493
-0.106367
0.023480
0.047244
-0.005605
0.070683
-0.036003
-0.026703
0.021885
-0.017700
-0.038468
-0.020676
0.024071
0.005339
0.021291
0.020265
0.003604
-0.001010
0.028245
0.021580
-0.035961
0.040951
-0.040387
0.091309
-0.006538
0.024148
0.077106
0.050420
0.078908
0.055843
0.153557
0.112954
0.224864
0.229943
0.265150
0.292706
0.367684
0.315614
0.405896
0.355757
0.405284
0.458783
0.308740
0.371422
0.413788
0.391016
0.361256
0.351132
0.320884
0.284403
0.260307
0.118821
0.197647
0.120800
0.109539
0.077970
0.050036
0.088392
0.056967
-0.058111
-0.020610
0.013980
0.004802
0.018724
0.007455
0.080260
-0.024914
-0.053124
-0.025931
0.107400
0.008310
-0.078498
0.052842
-0.045736
-0.033291
0.009710
-0.046269
0.013100
-0.063510
0.022066
0.019461
0.077812
-0.005382
-0.036570
-0.016414
-0.004332
-0.016096
-0.030031
-0.059837
-0.010479
0.000324
0.015166
-0.019087
0.031737
0.045776
0.071505
0.019692
-0.021112
-0.071197
0.039173
0.070791
0.036607
0.025996
0.027106
0.031808
-0.066771
0.007789
0.005445
0.024209
0.032011
-0.013749
0.013393
-0.027823
-0.005116
-0.015306
0.007037
0.037198
0.032314
0.012760
-0.017656
0.064466
-0.009772
-0.049222
-0.058214
-0.025513
0.055224
-0.010298
-0.036178
-0.073696
-0.059839
0.052209
0.046693
-0.035911
0.020939
0.068136
-0.027392
0.043290
-0.030781
0.015068
0.006439
0.041603
0.022139
0.007880
-0.004536
-0.008146
-0.035859
-0.038389
-0.003908
-0.044185
0.001238
-0.004751
0.008693
-0.062115
0.030774
0.030687
-0.012982
-0.018804
0.003185
0.009790
-0.011814
-0.020149
0.036457
-0.000666
-0.006930
0.034570
0.015516
0.007534
0.020402
0.028648
0.032242
0.037195
0.024831
-0.003614
-0.023416
-0.014400
0.053467
0.017434
0.045284
0.055189
-0.090821
-0.030410
-0.000392
0.014682
0.000592
-0.034413
-0.022069
0.050705
0.075462
0.021725
-0.090435
0.103099
-0.003074
0.024246
0.005445
0.008098
-0.011270
0.007922
0.004157
0.062313
-0.014491
-0.071969
-0.028062
0.009483
-0.016625
-0.015520
-0.004769
-0.004308
0.007616
-0.014636
-0.039524
-0.003987
-0.069781
-0.021817
0.014513
0.002287
-0.039370
0.003254
-0.019977
-0.018707
-0.010960
-0.039463
0.048242
0.003541
-0.002641
0.063278
0.005685
-0.042460
0.005520
-0.012490
0.002633
0.003056
0.052584
0.050877
-0.021166
0.008975
-0.003121
-0.065194
0.006809
-0.002816
-0.020268
0.026427
0.008414
-0.029675
-0.014651
0.047729
-0.006243
0.066716
-0.010740
-0.056568
-0.013520
0.025610
0.024147
-0.025532
0.030901
-0.035202
0.072318
-0.012048
0.002297
0.019116
0.026366
-0.027169
-0.011620
0.000508
0.002365
-0.039313
-0.019355
-0.059237
-0.016020
0.010666
0.046313
-0.006351
0.050410
-0.059257
-0.054790
-0.067975
0.065641
-0.063138
0.030608
-0.037823
0.078142
-0.020927
0.007510
0.025256
-0.018827
-0.012625
-0.008125
-0.000083
-0.060774
-0.001426
-0.007660
0.002850
-0.027894
0.008041
-0.049841
0.030078
-0.075319
-0.019514
0.000751
0.007932
-0.024084
-0.065776
-0.020303
0.037428
0.002612
0.028846
-0.010523
-0.024392
0.036274
-0.012929
-0.029836
-0.004166
0.039283
-0.032931
0.023334
-0.041893
-0.027311
0.018330
0.004770
-0.045404
0.020152
-0.025200
0.027008
0.068853
-0.063237
0.049922
0.032961
-0.015934
-0.041203
0.032468
0.001833
-0.030561
-0.067027
0.002734
0.005120
0.057127
-0.006133
0.040802
-0.057968
-0.020824
0.002290
-0.014855
-0.040362
0.006345
0.012427
-0.036205
-0.010629
0.010065
-0.028338
-0.032337
-0.053272
0.039582
0.061486
0.019953
0.043907
0.087672
0.079350
0.085470
0.056051
0.134198
0.074561
0.270181
0.208084
0.246617
0.286409
0.310660
0.342095
0.318916
0.286077
0.214862
0.294332
0.157107
0.219626
0.192921
0.066235
0.156529
0.047562
0.100027
-0.020976
0.005903
0.042534
-0.033025
-0.049171
0.024711
0.038077
0.052042
0.068737
0.392847
0.734622
1.032600
1.324722
1.559271
1.493792
1.365801
1.003374
0.669585
0.298908
0.124179
0.068508
0.035057
-0.054681
-0.008134
-0.027466
-0.035882
-0.064920
-0.058931
-0.027882
-0.031653
-0.016284
0.030234
0.055828
0.050600
0.014784
0.058079
0.021968
-0.037762
0.042953
-0.049424
-0.062099
-0.031339
0.031615
0.027686
0.026348
-0.045270
-0.002607
-0.037660
-0.004567
-0.011469
-0.051485
-0.033297
0.050501
0.030469
-0.007358
-0.030830
0.007331
0.016124
0.029434
-0.021983
-0.033245
0.047550
0.044379
0.071115
-0.030676
-0.021543
-0.030926
-0.016584
-0.065705
0.018028
-0.022623
0.078012
-0.034360
0.022125
0.093726
0.042086
0.046754
0.065343
-0.010391
0.127998
0.031294
0.058767
0.079183
0.111924
0.100922
0.177407
0.227811
0.228609
0.198916
0.267497
0.309185
0.340703
0.381685
0.373900
0.389941
0.383848
0.382676
0.397665
0.392667
0.394034
0.339354
0.302718
0.281556
0.250208
0.321395
0.219472
0.205458
0.194865
0.159186
0.056244
0.064830
0.049143
0.023196
0.147432
0.025070
0.014031
0.032350
0.091527
0.026966
-0.068526
-0.014727
0.015976
-0.053234
0.019285
-0.052893
-0.054828
0.015661
0.030370
0.040408
0.023494
-0.013889
0.018427
-0.039211
0.016661
0.023864
-0.027996
0.051466
-0.008002
-0.019269
-0.073443
-0.041635
0.012724
-0.003749
0.052452
-0.019737
-0.025986
0.073439
-0.034885
-0.033926
-0.042860
0.062571
0.072643
0.021683
0.028891
0.040699
0.008785
-0.037293
0.048575
0.021009
0.002835
0.020712
-0.043943
-0.008976
0.012452
-0.042064
0.049542
0.003232
-0.039881
-0.044275
0.004745
0.076468
-0.017335
-0.062238
-0.028587
-0.042535
-0.024771
-0.037002
-0.032667
-0.026057
0.043300
0.032227
-0.063838
-0.030707
-0.004260
-0.015572
0.015410
-0.021085
0.048560
-0.004092
-0.034496
0.000457
0.027933
0.037722
-0.064008
0.040680
0.035806
0.074177
0.010032
0.030289
-0.037365
-0.022014
0.056627
0.043225
-0.002724
0.082177
0.019577
-0.013170
0.073765
0.026393
-0.058611
-0.076519
-0.022447
0.054538
0.076558
0.028677
0.039210
-0.022018
0.043828
-0.046925
-0.042467
0.013360
-0.081723
0.000099
0.097789
0.034356
-0.055647
-0.031606
-0.003872
-0.031627
0.086335
0.062943
-0.045607
-0.017557
-0.072439
0.056557
0.062801
0.009371
0.016131
-0.094918
0.016527
-0.011610
-0.001259
0.001717
0.007147
0.036115
0.103193
-0.024119
0.026884
-0.024721
-0.026616
0.000464
-0.010074
0.003651
0.007613
0.002324
-0.002835
0.018760
0.003744
0.066940
0.037855
-0.063500
0.040500
0.010025
0.068777
-0.029346
0.030809
-0.056506
0.097001
-0.005815
0.009491
0.035550
-0.026762
0.006943
0.030070
0.007302
0.047841
-0.022390
0.035294
0.044488
-0.011464
-0.011839
-0.000982
0.043149
-0.058923
0.083429
0.058557
-0.017133
-0.036018
0.010843
0.099885
0.111394
-0.060222
0.019035
0.044675
-0.020263
-0.050687
0.007536
-0.027195
-0.035634
-0.166295
0.061930
-0.007441
-0.055418
-0.015958
-0.065028
0.006427
-0.063614
0.036997
-0.023626
0.049111
-0.001991
0.016867
0.023431
0.008226
-0.007751
0.023714
-0.046075
0.043632
-0.015933
0.017983
0.065644
0.027211
0.076325
-0.002423
0.023531
-0.002135
0.004122
0.003538
-0.024084
-0.084874
-0.006487
0.058846
0.005717
-0.115735
0.059260
0.004234
0.005973
0.052559
0.018065
-0.014708
0.000274
-0.033032
-0.073087
-0.010633
-0.060250
0.020250
0.032062
-0.011889
-0.042629
0.024922
-0.000163
0.018203
-0.080225
-0.005576
0.021418
-0.051874
-0.050841
0.043044
-0.087694
0.000800
-0.045135
0.019780
-0.028011
-0.062947
0.029486
0.113853
-0.037885
0.024986
0.033694
0.038519
0.034843
-0.003776
-0.004047
-0.075759
0.002679
0.003619
-0.052978
-0.004629
0.001674
0.073215
0.004224
-0.004954
-0.059072
0.035916
0.023229
-0.071764
-0.023412
0.060206
0.025631
0.008053
0.036809
-0.016899
-0.004229
-0.087683
-0.055792
0.001821
0.030472
0.058901
0.020130
-0.027588
0.040163
-0.000323
0.071541
-0.050572
-0.012401
0.056069
-0.026044
0.072997
0.038373
0.017800
0.059454
0.097978
0.161119
0.190729
0.156013
0.170488
0.157333
0.228332
0.305766
0.320252
0.293257
0.307378
0.266951
0.161550
0.236012
0.282275
0.193154
0.156178
0.148504
0.064516
0.003507
0.063442
0.125115
0.012758
-0.037830
0.005438
-0.044643
0.088290
-0.054876
0.107335
0.153451
0.283619
0.695384
1.029985
1.340453
1.631651
1.530102
1.267523
0.895214
0.542820
0.286958
0.198369
0.060874
-0.016254
0.009354
-0.014504
0.026196
0.007740
0.020850
0.016903
0.024367
-0.007217
-0.005258
-0.079597
0.001792
-0.000502
0.033468
0.046488
0.001081
0.024973
-0.014209
-0.021022
0.021332
-0.044017
-0.035844
0.040268
-0.030544
-0.042937
-0.018148
-0.074923
0.065565
-0.021763
-0.010046
0.082371
0.034606
-0.006502
0.036857
-0.042921
0.077473
0.049244
0.025072
-0.025317
-0.008209
0.103631
-0.040212
-0.022989
0.035655
-0.010643
-0.008431
-0.017087
0.004700
0.023291
0.005509
-0.017888
0.026859
-0.004933
0.070661
-0.007451
0.033664
0.079675
0.039492
0.006172
-0.004271
-0.008777
0.099371
0.166176
0.093814
0.191878
0.166294
0.193737
0.258503
0.250456
0.334445
0.296975
0.343630
0.379789
0.293813
0.392099
0.404054
0.445817
0.387629
0.384983
0.350317
0.333742
0.279912
0.369030
0.295142
0.213534
0.254940
0.121478
0.223161
0.147571
0.082393
0.119595
0.124735
0.058973
0.033590
0.032451
0.105932
0.051511
-0.078144
0.019630
0.038790
0.024215
0.040601
-0.055070
0.078923
-0.027174
0.022840
0.008849
-0.016539
0.035534
-0.051670
-0.024921
0.041367
0.071896
-0.010591
0.020550
0.030900
0.032721
-0.011892
0.002921
-0.042555
-0.047860
-0.080038
-0.044127
-0.029366
-0.002999
0.006127
0.026026
-0.032250
0.068843
-0.024822
-0.023799
0.042506
0.000078
-0.003562
-0.052170
-0.043702
0.018559
0.039054
0.026618
0.070448
-0.013722
0.034758
-0.040642
0.012138
-0.031795
0.003412
-0.008525
0.004812
0.008495
-0.064774
-0.047363
0.020731
0.016307
0.025334
-0.030111
-0.108337
0.024386
0.043947
-0.006372
0.018254
-0.031976
-0.036607
-0.032419
0.047934
-0.012329
0.008640
-0.010819
0.016549
-0.070200
-0.018392
-0.041085
-0.048919
-0.044492
0.087810
-0.002943
0.007285
0.015270
0.001434
0.021324
0.026372
-0.002517
0.039163
-0.006410
-0.046944
0.028307
0.026481
0.064618
0.077900
0.067256
-0.001117
0.040623
-0.038197
0.036977
0.011060
-0.032760
0.038963
0.013481
0.012547
-0.036573
-0.032895
0.040214
0.035037
0.027147
-0.068385
-0.007195
-0.039397
0.017723
-0.024010
-0.017443
0.059319
-0.030408
0.002117
-0.021840
0.113844
0.047409
0.025390
-0.002355
-0.004996
0.027841
-0.041414
-0.073489
0.004769
-0.035566
0.015162
0.020596
-0.009211
-0.011658
-0.015535
-0.035646
-0.036211
0.001429
-0.014412
-0.054836
-0.028789
0.058778
-0.056201
0.025115
0.065907
0.015977
-0.018767
-0.018459
-0.079805
-0.020611
0.008285
0.038131
0.065331
-0.047034
0.023456
-0.033203
-0.024051
0.066371
0.019131
0.044198
0.002883
-0.030582
-0.052108
0.032096
-0.058840
0.010397
0.031382
0.017080
0.037654
-0.053464
-0.016226
-0.033036
0.021024
-0.027898
-0.003097
-0.035573
-0.010020
0.079366
-0.083822
0.043475
-0.001317
-0.021279
0.021970
-0.010175
0.031245
-0.047141
-0.027142
-0.001111
-0.029065
-0.031924
-0.001244
-0.065087
-0.030551
-0.057133
-0.008770
-0.048919
0.004567
0.026159
0.023141
-0.025192
-0.012398
-0.024255
-0.021860
0.031873
-0.029177
-0.043775
0.045447
0.038109
-0.012798
0.003622
-0.001792
0.009821
-0.006683
-0.014527
0.035331
-0.003162
0.010935
0.069047
0.017874
-0.033662
-0.021622
0.047295
-0.046552
0.014036
0.076720
-0.096947
-0.003742
0.020212
-0.005697
0.010799
-0.074188
0.054961
-0.016626
0.036013
0.082396
-0.005710
0.037856
0.018654
-0.004166
0.040719
-0.018378
0.052763
0.000102
0.029322
-0.002237
-0.024198
0.013220
-0.081292
0.018362
-0.043156
0.015749
0.051400
0.034626
0.009381
-0.020895
-0.061199
0.005705
0.028499
-0.055702
-0.063817
0.010826
0.002006
-0.039143
-0.058952
0.029126
0.024380
0.045540
-0.034572
-0.036352
-0.009324
0.038175
0.054219
-0.017833
0.035586
0.106975
0.045442
-0.042645
0.002744
0.033867
-0.029465
0.036785
-0.002390
0.062106
-0.061957
0.022173
0.034658
0.040659
0.002674
-0.003777
-0.013201
0.030891
0.002769
0.021600
0.066206
-0.018828
0.018526
0.060368
0.003362
-0.025996
0.032951
0.045206
0.025772
0.013488
-0.006650
0.007641
-0.014838
-0.009676
-0.054413
-0.045208
-0.003394
0.022591
0.068928
0.036593
-0.003412
0.019408
-0.079482
-0.003591
-0.001879
0.050823
0.038069
-0.013682
0.037900
-0.040741
0.027330
0.009951
0.044523
0.070270
0.068341
0.020062
0.013074
0.046784
-0.008264
0.024651
0.003746
-0.045467
0.015600
-0.026239
-0.046771
0.000346
-0.029111
0.014340
0.005207
-0.041860
0.002448
-0.047126
-0.037706
0.035824
-0.001937
-0.029816
-0.018500
-0.045185
-0.038603
-0.033058
-0.042819
-0.052049
0.036397
0.005595
0.016837
-0.000476
0.022083
0.055330
-0.050678
0.031817
0.046375
0.006196
0.084684
0.043459
-0.023448
0.007553
-0.012753
0.084527
0.004082
-0.042718
0.005629
-0.054272
-0.042640
-0.006730
0.018440
-0.038930
0.022539
0.035192
-0.031005
-0.073384
0.009343
-0.014000
-0.034908
0.022856
0.060534
0.013610
-0.014614
0.035952
0.032793
-0.077553
0.002913
0.031213
0.016418
-0.010969
