time,amplitude
0.0,-0.040943864569311414
0.0027785495971103086,0.023539626620758754
0.005557099194220617,-0.005919860220766225
0.008335648791330925,-0.05225473420811815
0.011114198388441235,0.060713096438083966
0.013892747985551544,-0.057865126891708425
0.01667129758266185,0.0038916357905472883
0.01944984717977216,-0.00573575164304214
0.02222839677688247,-0.08546789082220199
0.025006946373992776,0.027576181498788613
0.027785495971103087,-0.02005622954716344
0.030564045568213394,0.01978914789199834
0.0333425951653237,-0.004885277874904498
0.03612114476243401,0.029039554595386746
0.03889969435954432,0.020337902768434665
0.04167824395665463,0.02811319711066809
0.04445679355376494,-0.02771759212452206
0.04723534315087525,0.014152773256114363
0.05001389274798555,-0.10500141734923334
0.052792442345095864,0.0429532151211488
0.055570991942206174,-0.008049199527411689
0.05834954153931648,0.05387097518565479
0.06112809113642679,-0.006733771526052559
0.06390664073353709,-0.05496199883777186
0.0666851903306474,0.06512194442588193
0.06946373992775771,0.028880418371492668
0.07224228952486803,-0.01601375284720889
0.07502083912197834,-0.018829424678099664
0.07779938871908865,0.009119249359599199
0.08057793831619894,0.09490752933553115
0.08335648791330925,0.045880456707507095
0.08613503751041957,0.10827478850796404
0.08891358710752988,0.03182440386869368
0.09169213670464019,0.007081489841903495
0.0944706863017505,0.0748404671585778
0.09724923589886081,0.17119877240436396
0.1000277854959711,0.08428705684451653
0.10280633509308142,0.12352523258551922
0.10558488469019173,0.08600775445314571
0.10836343428730204,0.24073603618388606
0.11114198388441235,0.19919650226166682
0.11392053348152266,0.22168595742869948
0.11669908307863296,0.3256567168868451
0.11947763267574327,0.15247710710604903
0.12225618227285358,0.27601702576604675
0.1250347318699639,0.3350140508083012
0.12781328146707419,0.2146406188939071
0.1305918310641845,0.2677345438688323
0.1333703806612948,0.3148130759366107
0.13614893025840513,0.023692082373155787
0.13892747985551543,0.08160582929235768
0.14170602945262575,0.09559449972000322
0.14448457904973605,0.12763970296547478
0.14726312864684635,0.04492577365716042
0.15004167824395667,-6.18656551095928e-05
0.15282022784106697,-0.016210900654477705
0.1555987774381773,0.04486982189254346
0.1583773270352876,0.06196826041909795
0.1611558766323979,0.13702889713733077
0.1639344262295082,0.1493547754349818
0.1667129758266185,0.27591038624716857
0.16949152542372883,0.5050679501928859
0.17227007502083913,0.7759631440683729
0.17504862461794946,1.187325101309632
0.17782717421505975,1.4682840663617114
0.18060572381217005,1.4464230808012972
0.18338427340928037,1.3237628256863112
0.18616282300639067,0.9672117292717448
0.188941372603501,0.6642016958648409
0.1917199222006113,0.33448279350674454
0.19449847179772162,0.14917109139813925
0.19727702139483191,0.020860399623307713
0.2000555709919422,-0.09714832524687243
0.20283412058905254,0.026234035438066468
0.20561267018616283,0.006190977760365424
0.20839121978327316,-0.07334543438806633
0.21116976938038345,-0.0758182717599488
0.21394831897749375,-0.04640632532320977
0.21672686857460408,0.008539810291842953
0.21950541817171437,0.0015073178092864618
0.2222839677688247,0.004452846280059134
0.225062517365935,0.16299963199744807
0.22784106696304532,0.08660350382902661
0.23061961656015562,-0.06367016842182643
0.2333981661572659,-0.03714210563294099
0.23617671575437624,0.007007704137668622
0.23895526535148653,0.013583435058238075
0.24173381494859686,0.020159676549121607
0.24451236454570716,-0.010998379445903775
0.24729091414281748,0.039415707423115134
0.2500694637399278,-0.03510944984221821
0.2528480133370381,-0.05790159369756227
0.25562656293414837,0.09073078313148705
0.2584051125312587,0.11889443335406755
0.261183662128369,-0.08337889318064393
0.26396221172547935,0.04409760902438688
0.2667407613225896,0.058324008535645885
0.26951931091969994,0.11699550045953358
0.27229786051681026,0.031826199494813294
0.27507641011392053,0.07494590162483533
0.27785495971103086,0.0489823021761062
0.2806335093081412,-0.013105790919738649
0.2834120589052515,0.05290398236307312
0.2861906085023618,-0.03471873163616259
0.2889691580994721,-0.002462200004990897
0.2917477076965824,0.007625459198747636
0.2945262572936927,0.0005466157798203145
0.297304806890803,-0.005432029752706446
0.30008335648791334,0.09414573081305608
0.3028619060850236,0.02002266814308273
0.30564045568213394,-0.02665169024319742
0.30841900527924426,0.05400982615637027
0.3111975548763546,0.026151147644165193
0.31397610447346486,0.07742288377037655
0.3167546540705752,0.045648847524929335
0.3195332036676855,0.059428932968491985
0.3223117532647958,0.1343653376319287
0.3250903028619061,0.09937657900622471
0.3278688524590164,0.10704646134575002
0.33064740205612675,0.12970789414697229
0.333425951653237,0.14118182605424984
0.33620450125034734,0.18903546563393617
0.33898305084745767,0.19681237835203957
0.34176160044456794,0.34476900706234503
0.34454015004167826,0.22278226786416658
0.3473186996387886,0.35391932708662516
0.3500972492358989,0.28008152227792965
0.3528757988330092,0.3717761614268852
0.3556543484301195,0.31235144412199584
0.35843289802722983,0.35759793759851544
0.3612114476243401,0.38096806407950745
0.3639899972214504,0.3352746458505072
0.36676854681856075,0.3927198789852184
0.3695470964156711,0.3355624682994092
0.37232564601278134,0.2753564477839688
0.37510419560989167,0.2506621527290383
0.377882745207002,0.1962258431923723
0.38066129480411226,0.1953343133099
0.3834398444012226,0.2875174995238808
0.3862183939983329,0.18085040893049883
0.38899694359544323,0.1545174910440556
0.3917754931925535,0.09376578514851992
0.39455404278966383,0.1317461968683902
0.39733259238677415,0.09043239611762954
0.4001111419838844,0.1691713819705153
0.40288969158099475,0.06405646703471034
0.40566824117810507,-0.034811223591294196
0.4084467907752154,0.016807130668920645
0.41122534037232567,-0.01803374379005241
0.414003889969436,0.06526915901159068
0.4167824395665463,-0.05846713697806027
0.4195609891636566,0.005364353398951551
0.4223395387607669,-0.019873750489491422
0.42511808835787723,-0.024813733663507205
0.4278966379549875,0.00813655606764252
0.4306751875520978,-0.05116310937491983
0.43345373714920815,-0.046480756191892236
0.4362322867463185,0.0521573277332814
0.43901083634342875,-0.04817192974810701
0.44178938594053907,-0.031286696847315394
0.4445679355376494,-0.0692209338519504
0.44734648513475966,0.03756473559733801
0.45012503473187,-0.01629006433285923
0.4529035843289803,0.017608037489128
0.45568213392609064,-0.03404166233425284
0.4584606835232009,-0.12179806206857094
0.46123923312031123,0.09061782393759713
0.46401778271742156,0.02581502049031428
0.4667963323145318,0.06314431128455388
0.46957488191164215,0.014384241906933498
0.4723534315087525,0.08143368620049178
0.4751319811058628,0.03707612677305121
0.47791053070297307,-0.0034391150987688355
0.4806890803000834,-0.03072065386199845
0.4834676298971937,-0.011771695417096294
0.486246179494304,0.06196086647077691
0.4890247290914143,0.09187885412386797
0.49180327868852464,-0.09282020420464211
0.49458182828563496,-0.01738189499433436
0.49736037788274523,-0.03206915841788975
0.5001389274798556,-0.0768988487681496
0.5029174770769659,0.025705505438458072
0.5056960266740762,-0.018419975441886526
0.5084745762711865,0.08756989070552283
0.5112531258682967,-0.026243660056075157
0.5140316754654071,-0.045242811421675175
0.5168102250625174,0.027558418738189438
0.5195887746596277,-0.016179738415922428
0.522367324256738,-0.017943093277646257
0.5251458738538484,-0.029607371575029365
0.5279244234509587,0.026740689835601576
0.5307029730480689,0.01271793439033649
0.5334815226451792,-0.07126211702509783
0.5362600722422896,-0.008321762143357381
0.5390386218393999,0.021495889623092488
0.5418171714365102,0.019966940180476064
0.5445957210336205,0.042907665695468646
0.5473742706307309,0.012000589085277978
0.5501528202278411,-0.0346736176254208
0.5529313698249514,-0.013828818514879888
0.5557099194220617,-0.0701558272419851
0.558488469019172,-0.04738564043335966
0.5612670186162824,0.03414727199270358
0.5640455682133927,0.05548771069337061
0.566824117810503,0.06152829175591343
0.5696026674076132,-0.14105605575933494
0.5723812170047236,-0.07391576037505156
0.5751597666018339,-0.017664852626801536
0.5779383161989442,-0.04221154455798881
0.5807168657960545,0.05107610542538831
0.5834954153931649,-0.010902293014192894
0.5862739649902752,0.02486625630538508
0.5890525145873854,0.01710903258277586
0.5918310641844957,-0.03594633613517965
0.594609613781606,0.07055875492128705
0.5973881633787164,0.01378364872517979
0.6001667129758267,-0.05621261922456797
0.602945262572937,-0.02477616313731038
0.6057238121700472,0.029305357749168037
0.6085023617671576,-0.026950888687045173
0.6112809113642679,-0.06758073399655605
0.6140594609613782,-0.0346666194598647
0.6168380105584885,0.08063379744096753
0.6196165601555989,-0.05853262074566401
0.6223951097527092,-0.011495316513456599
0.6251736593498194,-0.08174913995478597
0.6279522089469297,0.014367835145438913
0.63073075854404,-0.04286641005116832
0.6335093081411504,0.0009438929220932414
0.6362878577382607,-0.05874281683891202
0.639066407335371,0.009148500272541212
0.6418449569324813,-0.06012444233473501
0.6446235065295916,-0.003202814126205892
0.6474020561267019,-0.007366270895808085
0.6501806057238122,-0.026259605207713102
0.6529591553209225,0.08224117493918981
0.6557377049180328,-0.003674432583027409
0.6585162545151432,0.06549348451728086
0.6612948041122535,-0.05527291507933351
0.6640733537093637,0.04288290625879514
0.666851903306474,0.02102651785847061
0.6696304529035844,-0.04973135050142197
0.6724090025006947,0.023870129453641704
0.675187552097805,0.02302458548938611
0.6779661016949153,-0.03313182519638138
0.6807446512920257,-0.0019520115230961324
0.6835232008891359,0.09199489052567628
0.6863017504862462,-0.018451518587390307
0.6890803000833565,0.031876545272805104
0.6918588496804668,-0.0035116269460436084
0.6946373992775772,0.09623888964125837
0.6974159488746875,-0.0018931217047652477
0.7001944984717978,0.021716996584855573
0.702973048068908,-0.005074341772851452
0.7057515976660184,0.11201707972581024
0.7085301472631287,0.02802886339199915
0.711308696860239,0.01384327857083497
0.7140872464573493,-0.0099748892695803
0.7168657960544597,0.03673010729295358
0.71964434565157,0.007840248082684105
0.7224228952486802,-0.14795671302388477
0.7252014448457905,0.06193125624845323
0.7279799944429008,-0.03584900311574707
0.7307585440400112,-0.08607427854515821
0.7335370936371215,0.01611748040663263
0.7363156432342318,0.0318472707549792
0.7390941928313421,0.03055463803197821
0.7418727424284524,-0.06063094881041883
0.7446512920255627,-0.011326995714031033
0.747429841622673,-0.03839114057567151
0.7502083912197833,-0.009076864552396374
0.7529869408168937,0.04847305598148939
0.755765490414004,0.01600356137187885
0.7585440400111143,0.025084357516113678
0.7613225896082245,0.04189734048855462
0.7641011392053348,-0.050560214632075495
0.7668796888024452,0.006339382883019065
0.7696582383995555,-0.006232671140501833
0.7724367879966658,0.03432957114776884
0.7752153375937761,-0.0025927728417031405
0.7779938871908865,-0.025778329609670053
0.7807724367879967,0.003882351598757946
0.783550986385107,0.006575486861887814
0.7863295359822173,0.05074226493588927
0.7891080855793277,-0.025088554832943092
0.791886635176438,0.01942846627361001
0.7946651847735483,0.06840532390426583
0.7974437343706586,-0.022722518402781194
0.8002222839677688,-0.001664790316783077
0.8030008335648792,-0.04912925687027267
0.8057793831619895,-0.0055337689322584845
0.8085579327590998,0.06264866554306077
0.8113364823562101,0.08337601820889688
0.8141150319533205,-0.04084770223308839
0.8168935815504308,0.025971181740512144
0.819672131147541,0.01406295697771444
0.8224506807446513,-0.03649253460394531
0.8252292303417617,0.008771165916270104
0.828007779938872,0.02444548689103891
0.8307863295359823,-0.008452920808225132
0.8335648791330926,-0.031019045942590178
0.8363434287302028,0.10611654875277274
0.8391219783273132,0.035065760608455517
0.8419005279244235,0.0030706288005243423
0.8446790775215338,-0.028419372724747382
0.8474576271186441,0.010969067474432093
0.8502361767157545,-0.025495274246974047
0.8530147263128648,-0.05792463730115509
0.855793275909975,-0.00986719352730569
0.8585718255070853,-0.07900974712907964
0.8613503751041957,0.04139864154129858
0.864128924701306,-0.042356815585408256
0.8669074742984163,-0.04850263563576186
0.8696860238955266,-0.027104812317551265
0.872464573492637,0.01346569822460124
0.8752431230897472,-0.05003592384414901
0.8780216726868575,0.08434213237496176
0.8808002222839678,-0.11845399739421966
0.8835787718810781,0.061770406232166786
0.8863573214781885,0.13601521733825478
0.8891358710752988,0.05195635308344744
0.8919144206724091,0.009032399790150678
0.8946929702695193,0.09382413628238677
0.8974715198666297,0.03612677986628259
0.90025006946374,0.10274531913551785
0.9030286190608503,0.15328758349905955
0.9058071686579606,0.1905424099277287
0.908585718255071,0.16921191654174644
0.9113642678521813,0.15854454798522472
0.9141428174492915,0.25896182164434856
0.9169213670464018,0.26515351701554946
0.9196999166435121,0.28056550029812
0.9224784662406225,0.2572589186169828
0.9252570158377328,0.18516962623149533
0.9280355654348431,0.20400853758513782
0.9308141150319534,0.11436467806642789
0.9335926646290637,0.26240047330512034
0.936371214226174,0.17625843105390823
0.9391497638232843,0.10029928153096526
0.9419283134203946,0.08210252221683276
0.944706863017505,0.04772190241684378
0.9474854126146153,-0.005071532801576968
0.9502639622117256,0.018599161408880585
0.9530425118088358,-0.03334511527739501
0.9558210614059461,0.022810179442956623
0.9585996110030565,0.04804534102981303
0.9613781606001668,0.14006604412880752
0.9641567101972771,0.1709408812602549
0.9669352597943874,0.2541743172223022
0.9697138093914978,0.4725127468498535
0.972492358988608,0.8059871020475177
0.9752709085857183,1.1787469959434822
0.9780494581828286,1.5095817837625938
0.980828007779939,1.4999666128903029
0.9836065573770493,1.3422356433169684
0.9863851069741596,0.9794567083394952
0.9891636565712699,0.6610885851237576
0.9919422061683801,0.4220575080445659
0.9947207557654905,0.13143793041232654
0.9974993053626008,-0.03557328709001906
1.000277854959711,0.05016297220315611
1.0030564045568213,-0.08304621648593946
1.0058349541539318,-0.006993768028470184
1.008613503751042,-0.07057710359359126
1.0113920533481524,-0.12579932619085196
1.0141706029452626,0.023246753180961404
1.016949152542373,-0.039905642307508454
1.0197277021394833,0.0023199785533412703
1.0225062517365935,0.0522728564545544
1.025284801333704,-0.037221583919766855
1.0280633509308141,-0.018865287101394977
1.0308419005279246,-0.009137543110012681
1.0336204501250348,0.07663131026362655
1.0363989997221452,0.021649302718872047
1.0391775493192554,-0.0768433805277888
1.0419560989163656,-0.031467125588651626
1.044734648513476,-0.05881949038131635
1.0475131981105863,0.03800569984328674
1.0502917477076967,0.005435096085053589
1.053070297304807,-0.11765807044730908
1.0558488469019174,0.03644507707805186
1.0586273964990276,-0.01646936635573639
1.0614059460961378,0.02656709379171157
1.0641844956932482,-0.05311810226607433
1.0669630452903585,0.030948268442010842
1.069741594887469,0.07285353861415804
1.072520144484579,0.01609111678776065
1.0752986940816895,0.0784842370103854
1.0780772436787998,0.04392374889769379
1.08085579327591,0.028548738424729693
1.0836343428730204,-0.016097085255722635
1.0864128924701306,0.09588829654036507
1.089191442067241,0.05752080587899951
1.0919699916643513,0.09298018977945963
1.0947485412614617,0.07713628856747595
1.097527090858572,-0.013570921207017497
1.1003056404556821,-0.008415691879140912
1.1030841900527926,0.03912165286459389
1.1058627396499028,0.000669596204853639
1.1086412892470132,0.009870707423427563
1.1114198388441234,0.05622141525405127
1.1141983884412339,0.07363511644694716
1.116976938038344,0.08379792978958708
1.1197554876354543,0.05431006709970532
1.1225340372325647,0.09526559503798025
1.125312586829675,0.0931411248973539
1.1280911364267854,-0.0032243900713273543
1.1308696860238956,0.10783063228689349
1.133648235621006,0.1551714775797744
1.1364267852181162,0.21176556966009716
1.1392053348152265,0.2623323342735588
1.141983884412337,0.23663595491933626
1.144762434009447,0.27149022415152546
1.1475409836065575,0.3031711831561014
1.1503195332036678,0.2980991129055268
1.1530980828007782,0.2747229449315946
1.1558766323978884,0.31589743154584154
1.1586551819949986,0.3072062989453669
1.161433731592109,0.4320654207598743
1.1642122811892193,0.30828761674397576
1.1669908307863297,0.35647356080072873
1.16976938038344,0.23411195420767458
1.1725479299805504,0.3415901093388694
1.1753264795776606,0.2788130920494026
1.1781050291747708,0.2384072229867389
1.1808835787718812,0.18220197762526424
1.1836621283689914,0.20786462905485048
1.1864406779661019,0.17590401351381402
1.189219227563212,0.20928040716285476
1.1919977771603223,0.08165925012548719
1.1947763267574327,0.06242880648191684
1.197554876354543,0.04253660533268646
1.2003334259516534,-0.00280427443878474
1.2031119755487636,0.07609502775626474
1.205890525145874,-0.020046570157137095
1.2086690747429842,0.024559481963872698
1.2114476243400945,0.07436662681955042
1.214226173937205,-0.020697803654545335
1.217004723534315,0.06742231708035318
1.2197832731314255,0.0008827045630546704
1.2225618227285358,0.013967349616420259
1.2253403723256462,0.021902230221863845
1.2281189219227564,0.01967052357515828
1.2308974715198666,0.004303306000648658
1.233676021116977,0.0354757396609641
1.2364545707140873,0.11302794644193694
1.2392331203111977,0.03568230773084672
1.242011669908308,-0.022194493693041235
1.2447902195054183,-0.07603018976746027
1.2475687691025286,-0.01280130301483697
1.2503473186996388,0.025037359162857875
1.2531258682967492,0.044154449038928345
1.2559044178938594,-0.002455746716187624
1.2586829674909699,-0.05937128333533347
1.26146151708808,0.04300736038965424
1.2642400666851905,0.05374474485844763
1.2670186162823007,0.04548477720511532
1.269797165879411,-0.050165207848456954
1.2725757154765214,0.078390447657459
1.2753542650736316,-0.01343737381618031
1.278132814670742,0.015151504949365372
1.2809113642678522,-0.018467532494861993
1.2836899138649627,0.03850430477560448
1.2864684634620729,0.021389181716867833
1.289247013059183,-0.12299338140348542
1.2920255626562935,-0.003659502871427019
1.2948041122534037,0.016728173403280745
1.2975826618505142,-0.08877870075768984
1.3003612114476244,-0.055078799197994216
1.3031397610447348,-0.023503212211030793
1.305918310641845,0.010576147708622766
1.3086968602389553,0.08451316622979625
1.3114754098360657,0.03209933259380969
1.314253959433176,0.08494473586202975
1.3170325090302863,0.00047327494863269245
1.3198110586273966,-0.02239323617460465
1.322589608224507,-0.1207439628956449
1.3253681578216172,-0.006139188726303896
1.3281467074187274,-0.04424851823269668
1.3309252570158379,-0.008369565753669846
1.333703806612948,0.015260409210877776
1.3364823562100585,0.05326893305929633
1.3392609058071687,0.014023036347235611
1.3420394554042792,-0.024396921856219205
1.3448180050013894,-0.07734678391299453
1.3475965545984996,0.0545800912515494
1.35037510419561,-0.04666123448179994
1.3531536537927202,0.05176278315608877
1.3559322033898307,-0.012720087531652382
1.3587107529869409,-0.1003630189982139
1.3614893025840513,-0.033476101922935285
1.3642678521811615,-0.059410461465122924
1.3670464017782717,-0.03481342277858278
1.3698249513753822,-0.040183283472155475
1.3726035009724924,0.026023755496084173
1.3753820505696028,-0.0006080716037704715
1.378160600166713,-0.030707756505160052
1.3809391497638235,-0.008474197225083295
1.3837176993609337,-0.019717112592961102
1.386496248958044,0.01364118204475055
1.3892747985551543,0.03095643770895225
1.3920533481522646,-0.029410591970196853
1.394831897749375,0.08508076514115243
1.3976104473464852,-0.015791984178676704
1.4003889969435956,0.056111393508147644
1.4031675465407059,0.0015091209629685715
1.405946096137816,0.0447537083689927
1.4087246457349265,0.07263575032601675
1.4115031953320367,-0.044225993925256564
1.4142817449291472,0.010502292738385197
1.4170602945262574,0.05609170972297792
1.4198388441233678,0.08833112820379284
1.422617393720478,-0.0014366778588157597
1.4253959433175882,-0.0743667356651838
1.4281744929146987,-0.05935556289374595
1.4309530425118089,0.06600015925233003
1.4337315921089193,0.0544500043393809
1.4365101417060295,-0.08804192129231743
1.43928869130314,-0.12105746957275854
1.4420672409002502,-0.05506013756119685
1.4448457904973604,0.021952200730617683
1.4476243400944708,0.004930315784745825
1.450402889691581,-0.03888438130710241
1.4531814392886915,-0.04147925678226667
1.4559599888858017,0.027956900174810256
1.4587385384829121,0.017746183805035544
1.4615170880800223,-0.019194536230895017
1.4642956376771326,0.0862500273486947
1.467074187274243,-0.029230800373659577
1.4698527368713532,0.03676297208551562
1.4726312864684636,0.016891757763548468
1.4754098360655739,0.01905970953029615
1.4781883856626843,0.01211659807072648
1.4809669352597945,-0.006953313962167382
1.4837454848569047,-0.0012151501528047952
1.4865240344540152,-0.023731360198308377
1.4893025840511254,-0.0078021487749126515
1.4920811336482358,0.05561194054855363
1.494859683245346,-0.07053798895834247
1.4976382328424565,0.02700146816521067
1.5004167824395667,0.03416861173262342
1.5031953320366769,0.06981757731231372
1.5059738816337873,-0.002211924733247898
1.5087524312308975,-0.042030189358784886
1.511530980828008,-0.009845467108532171
1.5143095304251182,-0.0338829594415573
1.5170880800222286,0.07375436697228009
1.5198666296193388,0.012337660465277988
1.522645179216449,0.01824428186304792
1.5254237288135595,0.017165453602197463
1.5282022784106697,-0.0180021009355741
1.5309808280077801,0.03849408177652368
1.5337593776048903,0.05292338400632926
1.5365379272020008,0.06252593211833436
1.539316476799111,-0.037675251210789115
1.5420950263962212,-0.020505377475186576
1.5448735759933316,-0.026753317855625177
1.5476521255904419,-0.018639436259244524
1.5504306751875523,0.02823406705172432
1.5532092247846625,0.001935281309346221
1.555987774381773,-0.0364692585632031
1.5587663239788832,-0.09504502122115199
1.5615448735759934,0.06489466506706816
1.5643234231731038,-0.019295189917584214
1.567101972770214,0.005720944159348588
1.5698805223673244,0.006088983005550896
1.5726590719644347,0.01056652044160665
1.575437621561545,-0.0038593225708516993
1.5782161711586553,-0.05291724501226143
1.5809947207557655,-0.017938244967871074
1.583773270352876,0.06435034729140794
1.5865518199499862,-0.018098686725765294
1.5893303695470966,-0.05687485077171478
1.5921089191442068,0.038915044870454975
1.5948874687413173,0.034778421517198274
1.5976660183384275,0.08089137381760367
1.6004445679355377,-0.04771092475911235
1.6032231175326481,-0.12862376804719602
1.6060016671297583,0.014187704669101948
1.6087802167268688,-0.020041437515529205
1.611558766323979,0.044149940931257785
1.6143373159210894,-0.022893496091654923
1.6171158655181996,-0.062034790697983525
1.6198944151153098,0.045050531319460324
1.6226729647124203,-0.023567761553611694
1.6254515143095305,0.05304154138773229
1.628230063906641,0.00491832208776941
1.6310086135037511,0.0414387220626406
1.6337871631008616,0.005654533266718327
1.6365657126979718,0.07253677076035232
1.639344262295082,0.0487743478484529
1.6421228118921924,0.035227680776577244
1.6449013614893027,0.01186511803365485
1.647679911086413,-0.05287042701603379
1.6504584606835233,0.0438376511287901
1.6532370102806337,-0.03201660348862658
1.656015559877744,-0.034996443471915245
1.6587941094748542,-0.01167798264840432
1.6615726590719646,0.020796681786552428
1.6643512086690748,0.02136930444422163
1.6671297582661853,-0.03383150722547624
1.6699083078632955,-0.040274552597549654
1.6726868574604057,0.0233735013732738
1.6754654070575161,0.01734879025334475
1.6782439566546263,-0.06892872006858482
1.6810225062517368,0.05537123557010786
1.683801055848847,0.15772721665289555
1.6865796054459574,0.07432419701896849
1.6893581550430676,0.033710450590226496
1.6921367046401778,-0.017966709178090873
1.6949152542372883,0.025798783544401974
1.6976938038343985,-0.04667889551264923
1.700472353431509,0.08583612913390617
1.7032509030286191,0.23390722878280545
1.7060294526257296,0.18986520695411824
1.7088080022228398,0.1646043366342964
1.71158655181995,0.2731681767109747
1.7143651014170604,0.2489385312132344
1.7171436510141707,0.29337395048490744
1.719922200611281,0.282255688116729
1.7227007502083913,0.2591983313860791
1.7254792998055017,0.2552549818377505
1.728257849402612,0.1364511183327365
1.7310363989997222,0.2322355210876058
1.7338149485968326,0.1575131326819461
1.7365934981939428,0.06446591504124566
1.7393720477910533,0.18637578720005443
1.7421505973881635,0.07310706118878793
1.744929146985274,0.05482768722388362
1.7477076965823841,0.06343865737253396
1.7504862461794943,0.06293561642845606
1.7532647957766048,0.12516686934568913
1.756043345373715,0.012626004418881153
1.7588218949708254,0.05535369455961489
1.7616004445679356,0.08159632138116947
1.764378994165046,0.20607878768435278
1.7671575437621563,0.36951513702115013
1.7699360933592665,0.5303003991866841
1.772714642956377,0.8912125247947947
1.7754931925534871,1.2029729476928281
1.7782717421505976,1.449854426446151
1.7810502917477078,1.3802161849177195
1.7838288413448182,1.3464765640864187
1.7866073909419284,1.0087767250332913
1.7893859405390387,0.6187829902362381
1.792164490136149,0.37909993520640756
1.7949430397332593,0.11384921232833015
1.7977215893303697,0.03903119204331568
1.80050013892748,0.013065475880343016
1.8032786885245904,0.0076421040633992505
1.8060572381217006,-0.0701010242504102
1.8088357877188108,-0.05122067259971168
1.8116143373159213,-0.030808544769100686
1.8143928869130315,0.11568281659343198
1.817171436510142,-0.05440737981868783
1.8199499861072521,-0.04774482676592257
1.8227285357043626,-0.0507238417480476
1.8255070853014728,0.030114027534093268
1.828285634898583,0.0473946656712453
1.8310641844956934,-0.054178541468278545
1.8338427340928036,-0.03249405465965443
1.836621283689914,0.07837560387299615
1.8393998332870243,-0.029721007367835856
1.8421783828841347,0.03699415574372832
1.844956932481245,0.054716455365514005
1.8477354820783551,0.031096539026943214
1.8505140316754656,-0.017189424068092353
1.8532925812725758,-0.03929885121693364
1.8560711308696862,-0.08636102723038223
1.8588496804667964,-0.026939201388694118
1.8616282300639069,0.10755448815876957
1.864406779661017,0.047674350698258136
1.8671853292581273,0.01952531524304786
1.8699638788552377,0.041390271110370365
1.872742428452348,-0.04814293740384056
1.8755209780494584,-0.0744459701751325
1.8782995276465686,0.06602646717812412
1.881078077243679,0.07673340302993814
1.8838566268407893,-0.005938435928155496
1.8866351764378995,0.0415723576587516
1.88941372603501,-0.06355764543255991
1.8921922756321201,-0.048820867248683224
1.8949708252292305,0.0041546081137170295
1.8977493748263408,-0.03585556667594092
1.9005279244234512,-0.023320249701845982
1.9033064740205614,0.09533283105326647
1.9060850236176716,-0.03913146841548073
1.908863573214782,0.016914244310466536
1.9116421228118923,0.019790517158201758
1.9144206724090027,0.09068716248655587
1.917199222006113,0.04482808267607344
1.9199777716032234,0.032381849361600545
1.9227563212003336,0.015905113825170666
1.9255348707974438,0.09943165389568043
1.9283134203945542,0.11579103740220509
1.9310919699916644,0.08602005254201613
1.9338705195887749,0.0895485774370304
1.936649069185885,0.18614485050801194
1.9394276187829955,0.23709019107156387
1.9422061683801057,0.2874705695493215
1.944984717977216,0.27160980236092225
1.9477632675743264,0.27921690942963884
1.9505418171714366,0.3784449642668939
1.953320366768547,0.3528348836039118
1.9560989163656572,0.4540790521867597
1.9588774659627677,0.3049160638124956
1.961656015559878,0.3980917780161098
1.964434565156988,0.40065229385601736
1.9672131147540985,0.3134579126855153
1.9699916643512088,0.13230547472271048
1.9727702139483192,0.2950784426440715
1.9755487635454294,0.2440043178450042
1.9783273131425398,0.13898107479412336
1.98110586273965,0.25543487612656723
1.9838844123367603,0.19287253535850996
1.9866629619338707,0.22112688614630233
1.989441511530981,0.07160554168809707
1.9922200611280914,0.12696778679680693
1.9949986107252016,0.06465861500400193
1.997777160322312,0.05418870580699958
2.000555709919422,0.060950925547740176
2.0033342595165324,-0.025175555565466454
2.0061128091136426,0.05011677190750041
2.0088913587107533,-0.00011289296526002107
2.0116699083078635,0.1076002934289001
2.0144484579049737,0.014898223884420497
2.017227007502084,-0.026509599731301327
2.020005557099194,-0.033167534413747826
2.022784106696305,0.09101746199496105
2.025562656293415,0.030358656346739555
2.0283412058905252,0.008470414803978555
2.0311197554876355,0.03147626849437142
2.033898305084746,0.08536704680960659
2.0366768546818563,0.0180905342861443
2.0394554042789665,0.07813404747060755
2.0422339538760768,0.09509713616944124
2.045012503473187,0.04249747189287345
2.0477910530702976,-0.030092472746973777
2.050569602667408,-0.03725881342876607
2.053348152264518,-0.014272448509595992
2.0561267018616283,-0.048805263896814534
2.0589052514587385,-0.014766080325377573
2.061683801055849,0.015543938284383139
2.0644623506529594,-0.07529141251942319
2.0672409002500696,-0.041991146309358705
2.07001944984718,0.017323557300003734
2.0727979994442904,0.021413812053171274
2.0755765490414007,-0.07525660224129381
2.078355098638511,0.10003484125539755
2.081133648235621,0.0547397142641248
2.0839121978327313,0.025482428734185738
2.086690747429842,0.05556972195439236
2.089469297026952,0.07709113980195585
2.0922478466240624,0.024706843939202236
2.0950263962211726,0.021324593729675267
2.097804945818283,-0.023699536079559522
2.1005834954153935,0.017883599531563044
2.1033620450125037,0.016220179768074855
2.106140594609614,-0.010421358218284217
2.108919144206724,0.12764016046516727
2.1116976938038348,0.02145150804703053
2.114476243400945,-0.03428055891020137
2.117254792998055,-0.0006917401197507354
2.1200333425951654,-0.008801512879696449
2.1228118921922756,-0.05197342797067513
2.1255904417893863,0.018351684689895002
2.1283689913864965,-0.05630607100132159
2.1311475409836067,0.01082468257946065
2.133926090580717,0.030764193802707517
2.136704640177827,0.06584023049113881
2.139483189774938,-0.0031175910539056307
2.142261739372048,0.10848502524171755
2.145040288969158,-0.030137959440266173
2.1478188385662684,-0.04422390901876801
2.150597388163379,-0.08959299653096742
2.1533759377604893,0.00451403223830825
2.1561544873575995,-0.022654253600992692
2.1589330369547097,0.008836961094863323
2.16171158655182,-0.018413013015543513
2.1644901361489306,-0.00486429648375104
2.167268685746041,-0.024387524839196803
2.170047235343151,0.07748849400427166
2.1728257849402612,-0.05202242881895061
2.1756043345373715,-0.056131247561319875
2.178382884134482,-0.02549723140461861
2.1811614337315923,-0.07247134190398132
2.1839399833287025,-0.02219030698457586
2.1867185329258128,0.016781288789596154
2.1894970825229234,0.03992681106838545
2.1922756321200336,-0.026363885462557135
2.195054181717144,-0.11005795422124626
2.197832731314254,0.003271800895931039
2.2006112809113643,-0.1024816556405746
2.203389830508475,0.005303132743669498
2.206168380105585,-0.046664445204518956
2.2089469297026953,0.04104249802127836
2.2117254792998056,-0.003925967082298385
2.2145040288969158,0.02609396041616755
2.2172825784940264,-0.045537854109264406
2.2200611280911366,-0.01864359737081208
2.222839677688247,-0.06049502762793754
2.225618227285357,-0.0011979847014009278
2.2283967768824677,0.15164055403105275
2.231175326479578,0.013284698782139774
2.233953876076688,0.0015835775955277869
2.2367324256737984,0.035758667163425385
2.2395109752709086,-0.031213121337210593
2.2422895248680192,0.059631836840385616
2.2450680744651295,0.026695457269274626
2.2478466240622397,-0.10211200015293607
2.25062517365935,-0.001858274814659211
2.25340372325646,-0.055359945971910976
2.2561822728535708,-0.025944646714550504
2.258960822450681,0.0058652468767817776
2.261739372047791,-0.06804366128809562
2.2645179216449014,0.023611255721849328
2.267296471242012,-0.013375869876477146
2.2700750208391223,-0.07682564526748838
2.2728535704362325,-0.09197160037620578
2.2756321200333427,-0.060770689610900534
2.278410669630453,-0.01842598287574713
2.2811892192275636,-0.05048585085891843
2.283967768824674,-0.04064326809857675
2.286746318421784,0.04066910112548922
2.289524868018894,-0.06593333617775321
2.2923034176160044,-0.02215567469714571
2.295081967213115,-0.008837729990729378
2.2978605168102253,-0.006011437604981169
2.3006390664073355,-0.025442215642615795
2.3034176160044457,-0.0955756067136939
2.3061961656015564,-0.00822384723343858
2.3089747151986666,-0.11910117461892086
2.311753264795777,0.003877282824668196
2.314531814392887,0.02648709756239217
2.3173103639899972,0.009578492569581563
2.320088913587108,-0.05703261454519212
2.322867463184218,-0.05790776190441218
2.3256460127813283,0.033790500558640545
2.3284245623784385,-0.012780218594451512
2.3312031119755487,0.016478049558197715
2.3339816615726594,-0.01150800724617364
2.3367602111697696,0.0020655264213805895
2.33953876076688,0.10559354669119728
2.34231731036399,0.04450240740531514
2.3450958599611007,0.011729859937488964
2.347874409558211,0.032952645013861956
2.350652959155321,-0.07677891592253437
2.3534315087524313,0.06491338699739695
2.3562100583495416,0.05329087905141534
2.358988607946652,0.08329715494050395
2.3617671575437624,0.008796032057256846
2.3645457071408726,-0.009884419177427224
2.367324256737983,0.1110044837793533
2.370102806335093,0.1404286368445356
2.3728813559322037,0.17270528338728558
2.375659905529314,0.32964309111526513
2.378438455126424,0.41223376174841164
2.3812170047235344,0.7278505739884619
2.3839955543206446,0.9801103334720797
2.3867741039177552,1.0922312816704496
2.3895526535148655,1.3611200753147306
2.3923312031119757,1.6497688854767105
2.395109752709086,1.8098740426584115
2.3978883023061965,2.0403750935665386
2.4006668519033068,1.928261393524238
2.403445401500417,2.009418732330514
2.406223951097527,1.7231760348460252
2.4090025006946374,1.5719548645657906
2.411781050291748,1.2714043330522122
2.4145595998888583,1.06318978878111
2.4173381494859685,0.7856114272654602
2.4201166990830787,0.5300085477495173
2.422895248680189,0.324431623088738
2.4256737982772996,0.27831176253468054
2.42845234787441,0.12967114179795214
2.43123089747152,0.11666645236042274
2.43400944706863,0.06356924146748832
2.436787996665741,0.041387452277927166
2.439566546262851,0.053558903995982995
2.4423450958599613,-0.03898313811832131
2.4451236454570715,-0.015987613444307353
2.4479021950541817,0.07214431792968347
2.4506807446512924,-0.00030132578953998734
2.4534592942484026,-0.0016498394468157252
2.456237843845513,-0.04327392777591241
2.459016393442623,0.04564140581007737
2.4617949430397332,-0.10336961168542334
2.464573492636844,0.001596690337568656
2.467352042233954,0.03283866527107284
2.4701305918310643,-0.0011673040246025295
2.4729091414281745,0.034395619651956706
2.475687691025285,-0.030137448855275948
2.4784662406223954,-0.07419343707514298
2.4812447902195056,0.09228880219147757
2.484023339816616,-0.12670085419378385
2.486801889413726,0.07977811164779826
2.4895804390108367,-0.04603755341693537
2.492358988607947,0.021951386918066876
2.495137538205057,-0.01623413018491603
2.4979160878021673,0.006855956805587307
2.5006946373992776,-0.013706845642627067
2.503473186996388,0.013239682305644589
2.5062517365934984,0.025667370425476538
2.5090302861906086,-0.03844475317683771
2.511808835787719,0.013015855670704558
2.5145873853848295,0.0074317222374328815
2.5173659349819397,-0.0011082963465286187
2.52014448457905,0.020001243291694615
2.52292303417616,-0.065302638852522
2.5257015837732704,0.059093525049844664
2.528480133370381,0.06380660270232076
2.5312586829674912,-0.015574646862583108
2.5340372325646014,-0.06265544820730899
2.5368157821617117,0.034561793669497916
2.539594331758822,-0.07802558071428974
2.5423728813559325,0.007779735835469721
2.5451514309530427,0.04993268007551876
2.547929980550153,-0.0014653847388381145
2.550708530147263,-0.01234831129977555
2.553487079744374,0.02401041905893099
2.556265629341484,-0.08252137865980232
2.5590441789385943,0.04118739632319467
2.5618227285357045,-0.1073440977089123
2.5646012781328147,-0.015370596714832405
2.5673798277299253,0.04784241761430219
2.5701583773270356,-0.04193314047257162
2.5729369269241458,-0.051799588023266376
2.575715476521256,0.05828357870319223
2.578494026118366,0.03697872614819197
2.581272575715477,0.013087590108248877
2.584051125312587,-0.05717317264031437
2.5868296749096973,-0.018552851997723628
2.5896082245068075,-0.06358137103909127
2.592386774103918,0.05549577015246414
2.5951653237010284,-0.04219025554421298
2.5979438732981386,0.0004576867416339335
2.600722422895249,0.005433629261965448
2.603500972492359,-0.005177840728020553
2.6062795220894697,-0.027385098924460616
2.60905807168658,-0.07156071034605299
2.61183662128369,0.02916562463098867
2.6146151708808003,0.11053482263103442
2.6173937204779105,0.013803380056798518
2.620172270075021,-0.04761511849038784
2.6229508196721314,-0.06930564587916098
2.6257293692692416,-0.020123900455749515
2.628507918866352,-0.13134541965194182
2.6312864684634625,0.04744470709274451
2.6340650180605727,-0.06417775017160371
2.636843567657683,-0.007834099113720565
2.639622117254793,-0.0616861943388642
2.6424006668519033,-0.030130653467728464
2.645179216449014,0.08042711496375757
2.647957766046124,-0.06435865011278254
2.6507363156432344,-0.017121003998262416
2.6535148652403446,-0.04067176186645274
2.656293414837455,-0.10346831979475606
2.6590719644345655,0.026852852451653052
2.6618505140316757,0.014724616139672565
2.664629063628786,-0.033962814490051965
2.667407613225896,-0.06720290753715971
2.670186162823007,-0.027260478310731105
2.672964712420117,0.035242809243427854
2.6757432620172272,-0.059920662855659015
2.6785218116143374,-0.019606776065325533
2.6813003612114477,-0.009287685455892902
2.6840789108085583,-0.01608105275439912
2.6868574604056685,-0.03944815980721243
2.6896360100027787,0.0035836019035847336
2.692414559599889,-0.059589594176607336
2.695193109196999,-0.1050981581750204
2.69797165879411,-0.043724517956933565
2.70075020839122,-0.08648442246574041
2.7035287579883303,-0.10263892999487838
2.7063073075854405,-0.184960072946674
2.709085857182551,-0.12173688616187661
2.7118644067796613,-0.12336615223125574
2.7146429563767716,-0.1011291564338955
2.7174215059738818,-0.1868588920729879
2.720200055570992,-0.21067651578069546
2.7229786051681026,-0.33715432001983997
2.725757154765213,-0.3321385309572441
2.728535704362323,-0.42435154308587003
2.7313142539594333,-0.4227956209758325
2.7340928035565435,-0.4574526297510926
2.736871353153654,-0.4267688614527797
2.7396499027507644,-0.4332257635523812
2.7424284523478746,-0.5051814974668271
2.745207001944985,-0.5244836170300258
2.7479855515420955,-0.45878146326633995
2.7507641011392057,-0.5276816392006249
2.753542650736316,-0.46322359016327275
2.756321200333426,-0.3416022384685634
2.7590997499305363,-0.46251735591893733
2.761878299527647,-0.4335341386059717
2.764656849124757,-0.5041013122056691
2.7674353987218674,-0.4051106490818503
2.7702139483189776,-0.3737305415809087
2.772992497916088,-0.30522471674931834
2.7757710475131985,-0.32499181712579334
2.7785495971103087,-0.3221853437012698
2.781328146707419,-0.22201587549234225
2.784106696304529,-0.15209461341694822
2.7868852459016398,-0.19804523805857907
2.78966379549875,-0.14116921108418792
2.79244234509586,-0.08541175244734489
2.7952208946929704,-0.1479205456818476
2.7979994442900806,-0.15095277922904232
2.8007779938871913,-0.08950913904723018
2.8035565434843015,0.0004885212713564568
2.8063350930814117,-0.10541053376845777
2.809113642678522,0.016207190284099247
2.811892192275632,-0.02730825498833938
2.814670741872743,-0.014026142688292123
2.817449291469853,-0.08219171032060205
2.8202278410669632,-0.0098933233102981
2.8230063906640734,0.04488946886772809
2.825784940261184,-0.06742329784984447
2.8285634898582943,0.009976504950558754
2.8313420394554045,-0.022439582305765288
2.8341205890525147,-0.0007313125579221369
2.836899138649625,-0.04844622187916309
2.8396776882467356,0.03240865296408424
2.842456237843846,0.03309044678029001
2.845234787440956,0.0376937647945313
2.8480133370380663,0.02785551765620863
2.8507918866351765,0.02339671423137605
2.853570436232287,-0.06311276181568544
2.8563489858293973,-0.02288947407936172
2.8591275354265075,-0.02788371850215283
2.8619060850236178,0.02117740341761874
2.864684634620728,0.04037435553206221
2.8674631842178386,-0.043760335880522666
2.870241733814949,-0.04740998562301342
2.873020283412059,-0.006159310127193014
2.8757988330091693,-0.03923501541742951
2.87857738260628,-0.02227663871558577
2.88135593220339,0.015359142312011641
2.8841344818005004,-0.0716786068689799
2.8869130313976106,0.03459530727554888
2.889691580994721,0.031947214574214414
2.8924701305918314,0.012343759666695958
2.8952486801889417,0.006668875974034134
2.898027229786052,0.06382549087091795
2.900805779383162,0.06155246671598328
2.9035843289802723,-0.001030539285646389
2.906362878577383,0.06694595237216355
2.909141428174493,-0.019856843200865774
2.9119199777716034,-0.0073929609438726845
2.9146985273687136,-0.03251194948057242
2.9174770769658243,0.039718263613086724
2.9202556265629345,0.03964419604380348
2.9230341761600447,-0.014027118336562394
2.925812725757155,-0.012268362369628952
2.928591275354265,0.006114752754679221
2.9313698249513758,-0.06033738428722118
2.934148374548486,-0.022806391410931465
2.936926924145596,0.004637245719257203
2.9397054737427064,-0.01722029675105425
2.9424840233398166,-0.10339443538372606
2.9452625729369273,0.024529756470388766
2.9480411225340375,0.09333567429152091
2.9508196721311477,0.024023725905101732
2.953598221728258,-0.004511232388411544
2.9563767713253686,0.050546030166340745
2.959155320922479,-0.038041708094149376
2.961933870519589,0.045207322685662056
2.964712420116699,-0.06466063744583507
2.9674909697138094,0.08485512543545462
2.97026951931092,0.021083040496386523
2.9730480689080303,0.005856113199560218
2.9758266185051405,-0.037754792723274005
2.9786051681022507,0.08993012738778418
2.981383717699361,0.021348741465965007
2.9841622672964716,0.01182044364176935
2.986940816893582,0.02979624890787543
2.989719366490692,0.0927137517695362
2.9924979160878022,-0.017255520860940215
2.995276465684913,-0.023188400886478906
2.998055015282023,0.024899827270474156
3.0008335648791333,-0.013554964971384238
3.0036121144762435,-0.003917053914178389
3.0063906640733538,0.022266074363027397
3.0091692136704644,-0.049762686855746044
3.0119477632675746,0.14009139020893413
3.014726312864685,-0.03834563694811825
3.017504862461795,-0.020605187612099965
3.0202834120589053,0.05594928398302649
3.023061961656016,-0.06129323817630781
3.025840511253126,0.010454103514896618
3.0286190608502364,0.04522119444571843
3.0313976104473466,0.04513375179005555
3.0341761600444572,0.004188883031547259
3.0369547096415674,0.045850232519017785
3.0397332592386777,0.03529605459912097
3.042511808835788,0.021720263174771538
3.045290358432898,-0.06926399898322756
3.0480689080300087,0.006897779962100315
3.050847457627119,0.032636769539072984
3.053626007224229,0.018856302497230956
3.0564045568213394,-0.0023566801711648994
3.0591831064184496,0.050094058514808915
3.0619616560155603,-0.0013342986436518166
3.0647402056126705,-0.0040439044204374055
3.0675187552097807,0.024815591700937552
3.070297304806891,0.017869095218782906
3.0730758544040016,0.013176406511775193
3.0758544040011118,0.08198469468267415
3.078632953598222,-0.057223753171514305
3.081411503195332,-0.04592305797214655
3.0841900527924424,-0.005838479824550557
3.086968602389553,0.00725778001041584
3.0897471519866633,-0.08310019434057746
3.0925257015837735,-0.008134868752223069
3.0953042511808837,-0.011004461100596795
3.098082800777994,0.00973665440913562
3.1008613503751046,0.036306820599992407
3.103639899972215,0.012358618125240866
3.106418449569325,-0.006797592441034993
3.109196999166435,-0.0531319235801669
3.111975548763546,0.011188891586100334
3.114754098360656,0.0957242475446541
3.1175326479577663,0.033094483645727236
3.1203111975548765,0.09462560492085514
3.1230897471519867,-0.08186363288597658
3.1258682967490974,-0.01715404082584974
3.1286468463462076,0.027676936385751014
3.131425395943318,-0.012726863209476792
3.134203945540428,-0.02047822730997645
3.1369824951375382,0.014401465199081002
3.139761044734649,0.0014231166118454477
3.142539594331759,0.06372919833431759
3.1453181439288693,0.03409534489676877
3.1480966935259795,-0.0473505912110827
3.15087524312309,0.019569553197430884
3.1536537927202004,-0.030688538407440066
3.1564323423173106,0.06810216647589966
3.159210891914421,-0.08311542117114419
3.161989441511531,0.14569003956420795
3.1647679911086417,-0.012139286999295841
3.167546540705752,0.08256297995201606
3.170325090302862,-0.020366965002037288
3.1731036398999724,-0.029265561212897574
3.1758821894970826,0.011268985095400554
3.178660739094193,0.021138750163071138
3.1814392886913034,-0.008787268742409194
3.1842178382884136,-0.055405218046974264
3.186996387885524,-0.046923148299236515
3.1897749374826345,0.04425488405443178
3.1925534870797447,-0.03760216909321886
3.195332036676855,0.012116078687572286
3.198110586273965,-0.03368472173020249
3.2008891358710754,0.04676702490709873
3.203667685468186,-0.10918794645574798
3.2064462350652962,0.06020785144603596
3.2092247846624065,0.06341644679201706
3.2120033342595167,0.0688902369423275
3.214781883856627,0.06966224045323298
3.2175604334537375,-0.0014722822517510713
3.2203389830508478,0.05829719662717549
3.223117532647958,-0.011583257941988577
3.225896082245068,-0.005744856420093253
3.228674631842179,0.03989636539995335
3.231453181439289,-0.06827518611300894
3.2342317310363993,-0.013041332311111067
3.2370102806335095,0.08527570572012397
3.2397888302306197,0.019312531297868092
3.2425673798277304,-0.029388126839929835
3.2453459294248406,0.042329416430909456
3.248124479021951,-0.06743989213551436
3.250903028619061,-0.029081215123790395
3.253681578216171,-0.06387273206790907
3.256460127813282,0.07103281926352173
3.259238677410392,0.10591806659050897
3.2620172270075023,-0.07136815054905808
3.2647957766046125,-0.05342953367239852
3.267574326201723,0.02365810380302118
3.2703528757988334,0.005568420467403943
3.2731314253959436,-0.08457573826775752
3.275909974993054,0.0015334328420414235
3.278688524590164,0.09701455491870509
3.2814670741872747,0.05178660392261335
3.284245623784385,0.01585836338277734
3.287024173381495,0.0475901791998172
3.2898027229786053,0.0006482733609155938
3.2925812725757155,0.10623031434558183
3.295359822172826,0.06063762833701057
3.2981383717699364,0.05589542818251426
3.3009169213670466,0.10531432894249179
3.303695470964157,0.07548965928324779
3.3064740205612675,0.2608110496389857
3.3092525701583777,0.1773947367268369
3.312031119755488,0.1502859621882797
3.314809669352598,0.20794410536943828
3.3175882189497083,0.2998511579150032
3.320366768546819,0.26954053676694695
3.323145318143929,0.2883641735652442
3.3259238677410394,0.2523843825282487
3.3287024173381496,0.195134299350539
3.33148096693526,0.18588807835209015
3.3342595165323705,0.15043713041814535
3.3370380661294807,0.16835071020676023
3.339816615726591,0.16328275363699496
3.342595165323701,0.09698804746639068
3.3453737149208114,0.030032761687969235
3.348152264517922,0.03608711750607113
3.3509308141150322,-0.015157238768046824
3.3537093637121425,0.036254088240576854
3.3564879133092527,-0.0058249061853003214
3.3592664629063633,0.04843538314796142
3.3620450125034735,0.05970991742035508
3.3648235621005838,0.13811851937370795
3.367602111697694,0.3277963931280096
3.370380661294804,0.5206507816267956
3.373159210891915,0.8314182052567151
3.375937760489025,1.2987774019791671
3.3787163100861353,1.436911224416307
3.3814948596832455,1.4635610235543128
3.3842734092803557,1.2308268070895874
3.3870519588774664,0.9024258365156467
3.3898305084745766,0.5971835734828936
3.392609058071687,0.33920143525081126
3.395387607668797,0.10203837416000253
3.3981661572659076,0.07305067305086431
3.400944706863018,-0.002489341295798555
3.403723256460128,-0.04334178274774446
3.4065018060572383,0.0290586391575779
3.4092803556543485,0.042637676649604155
3.412058905251459,-0.034324160016350524
3.4148374548485694,0.0404514937009076
3.4176160044456796,-0.04433579208290888
3.42039455404279,-0.015027814332290414
3.4231731036399,-0.12813559689748066
3.4259516532370107,-0.04823478775826933
3.428730202834121,0.03827718314873894
3.431508752431231,0.03422778709068931
3.4342873020283413,0.027988372596182372
3.437065851625452,-0.07108141802841993
3.439844401222562,-0.01269452850594432
3.4426229508196724,-0.0047153451264978245
3.4454015004167826,0.087744810630883
3.448180050013893,-0.0620157069526372
3.4509585996110035,0.006394470539635515
3.4537371492081137,-0.08503880309890459
3.456515698805224,-0.03725046996457291
3.459294248402334,0.044778566328302065
3.4620727979994443,0.027452700951498443
3.464851347596555,-0.02814183654111365
3.467629897193665,0.02047987445482173
3.4704084467907754,-0.03314786853911367
3.4731869963878856,0.06191648801088382
3.4759655459849963,-0.022449870870186187
3.4787440955821065,0.028503309000388312
3.4815226451792167,-0.024124499915821176
3.484301194776327,-0.009956012108858256
3.487079744373437,-0.04278992136880734
3.489858293970548,0.024141270507439465
3.492636843567658,0.044181213573312096
3.4954153931647682,0.025114340934915807
3.4981939427618784,-0.0017407474321813428
3.5009724923589887,0.05772470756622036
3.5037510419560993,0.0774303427961447
3.5065295915532095,0.08683277371595559
3.5093081411503197,0.07732319371429412
3.51208669074743,0.03348274520478972
3.5148652403445406,-0.0018566318824702471
3.517643789941651,0.05116445999961083
3.520422339538761,0.10739914139913989
3.5232008891358713,0.0750608255633062
3.5259794387329815,0.10744228640096996
3.528757988330092,0.1992415803588854
3.5315365379272023,0.1425340422620564
3.5343150875243126,0.153650236361293
3.5370936371214228,0.32790442893911353
3.539872186718533,0.27378871136482635
3.5426507363156436,0.3230320357247466
3.545429285912754,0.2546031149209453
3.548207835509864,0.18100631323868965
3.5509863851069743,0.3729168057971342
3.553764934704085,0.28521246741511697
3.556543484301195,0.4294341106216186
3.5593220338983054,0.3350544844778305
3.5621005834954156,0.32346475395659663
3.564879133092526,0.39413104740973676
3.5676576826896365,0.3671108871631946
3.5704362322867467,0.2633363413821965
3.573214781883857,0.1804440498249938
3.575993331480967,0.31665470436008053
3.5787718810780773,0.2676719911457529
3.581550430675188,0.14646218287824853
3.584328980272298,0.27737947221024706
3.5871075298694084,0.18153434317650802
3.5898860794665186,0.13113996577207185
3.5926646290636293,0.17916488226040192
3.5954431786607395,0.07618887989939313
3.5982217282578497,-0.01116005923392481
3.60100027785496,0.046887955496210006
3.60377882745207,0.05531593643170447
3.606557377049181,0.011045967015525682
3.609335926646291,0.03313057513547582
3.612114476243401,-0.06403441841702046
3.6148930258405114,-0.07856796781016019
3.6176715754376216,0.08077491193856882
3.6204501250347323,0.07026585667861222
3.6232286746318425,-0.05263053127536582
3.6260072242289527,-0.0180824340840319
3.628785773826063,0.009988396914924431
3.6315643234231736,-0.03800698415073322
3.634342873020284,0.05330006563490291
3.637121422617394,0.012100777744031557
3.6398999722145042,0.017533551445738753
3.6426785218116144,0.08422291608378202
3.645457071408725,0.007058060586670659
3.6482356210058353,0.025811200621609773
3.6510141706029455,-0.004448685509227611
3.6537927202000557,0.007840593968244738
3.656571269797166,-0.011014239279337746
3.6593498193942766,0.006874224432887779
3.662128368991387,0.04253953149744153
3.664906918588497,-0.05008330329578906
3.6676854681856073,0.026991799803854636
3.670464017782718,-0.06376646642959943
3.673242567379828,0.042075007985014234
3.6760211169769383,0.13573429921884753
3.6787996665740486,-0.07340395613542781
3.6815782161711588,0.018342733306542056
3.6843567657682694,0.046508160224937825
3.6871353153653796,-0.06556433424263623
3.68991386496249,0.007360623642629346
3.6926924145596,-0.03999415648380755
3.6954709641567103,-0.07752232619219435
3.698249513753821,0.10346695792577612
3.701028063350931,0.014429268587829112
3.7038066129480414,-0.007051583157238731
3.7065851625451516,0.014369159701919666
3.7093637121422622,-0.011191298963149847
3.7121422617393725,-0.024787415270061543
3.7149208113364827,-0.014624821430080783
3.717699360933593,-0.03717406065602635
3.720477910530703,-0.0958951412553147
3.7232564601278137,0.04826227970568404
3.726035009724924,0.03034199904548779
3.728813559322034,-0.04139440099154648
3.7315921089191444,-0.019569234580282674
3.7343706585162546,0.016022656367571025
3.7371492081133653,-0.04989762624359729
3.7399277577104755,-0.10840406913399253
3.7427063073075857,0.06214704832721151
3.745484856904696,0.03331304369274846
3.7482634065018066,-0.043218069969255264
3.7510419560989168,-0.007735787392810293
3.753820505696027,-0.032004222492095495
3.756599055293137,0.03885513273402442
3.7593776048902474,-0.02107172774592858
3.762156154487358,0.009501594922623034
3.7649347040844683,-0.008982691218027063
3.7677132536815785,-0.0161689543213245
3.7704918032786887,0.013211950527121114
3.773270352875799,-0.03708029966094988
3.7760489024729096,-0.06665802612334125
3.77882745207002,0.06453585749387834
3.78160600166713,0.01713895063425785
3.7843845512642402,-0.017260207518640096
3.787163100861351,-0.04458737564513812
3.789941650458461,-0.04144055005696944
3.7927202000555713,0.04223857989767266
3.7954987496526815,-0.003952887235174312
3.7982772992497917,-0.04377596018559126
3.8010558488469024,-0.06657074052220871
3.8038343984440126,-0.12077830025824239
3.806612948041123,0.09121270730730227
3.809391497638233,0.05385405812969029
3.8121700472353433,-0.015745543272891873
3.814948596832454,-0.02470545933688484
3.817727146429564,0.09130618923215983
3.8205056960266743,-0.081932661919862
3.8232842456237845,0.048421368182673445
3.8260627952208948,-0.06446239738581676
3.8288413448180054,0.10501008656118818
3.8316198944151156,0.020033967470979342
3.834398444012226,0.0017789445057468753
3.837176993609336,0.025623431425579463
3.8399555432064467,-0.03657564147302641
3.842734092803557,0.07416504875674645
3.845512642400667,0.040950619514125576
3.8482911919977774,-0.008171427430195768
3.8510697415948876,0.016678048402776046
3.8538482911919982,0.06544055152745872
3.8566268407891084,0.06107766709790313
3.8594053903862187,0.04605292703534951
3.862183939983329,0.028229251691239694
3.864962489580439,0.015799396556612288
3.8677410391775497,0.006323912563022137
3.87051958877466,0.01048077713153696
3.87329813837177,-0.003396904712711533
3.8760766879688804,-0.08845690595997296
3.878855237565991,-0.11972714229787494
3.8816337871631013,-0.02331086346518048
3.8844123367602115,-0.030952010012706657
3.8871908863573217,0.03150141818489945
3.889969435954432,0.036826336017617964
3.8927479855515426,0.04882461358120617
3.8955265351486528,-0.01152298607735921
3.898305084745763,0.007298787121888747
3.901083634342873,0.0469105564414319
3.9038621839399834,-0.014721753442372129
3.906640733537094,0.053065479410129894
3.9094192831342043,0.09820404438112636
3.9121978327313145,0.0044901894355069616
3.9149763823284247,-0.07573052261174217
3.9177549319255354,0.13802052189723732
3.9205334815226456,-0.06772500203205092
3.923312031119756,0.004904757461807536
3.926090580716866,0.03233931225154065
3.928869130313976,-0.002042156900951653
3.931647679911087,-0.08102316874841818
3.934426229508197,-0.021571167620827572
3.9372047791053073,0.01237278403526917
3.9399833287024175,-0.005843380247305122
3.9427618782995277,-0.056553827125171985
3.9455404278966384,-0.029528982937467224
3.9483189774937486,0.09224716921687554
3.951097527090859,-0.012673515559483243
3.953876076687969,-0.031964252951577024
3.9566546262850797,0.0792315399340535
3.95943317588219,-0.027953871386725494
3.9622117254793,0.10104056327727975
3.9649902750764103,0.08669243084832085
3.9677688246735205,0.025843092216983794
3.970547374270631,-0.018482004509828277
3.9733259238677414,-0.04126519224319293
3.9761044734648516,0.04142477572364367
3.978883023061962,-0.029077511163066852
3.981661572659072,-0.029890995116913538
3.9844401222561827,-0.07765564641581992
3.987218671853293,0.009465740558393134
3.989997221450403,-0.058534081037522494
3.9927757710475134,-0.03658800102032294
3.995554320644624,0.061506972300465174
3.9983328702417342,0.013655327693027759
4.001111419838844,-0.05863732283786725
4.003889969435955,0.06414185794304629
4.006668519033065,-0.09465664101098394
4.009447068630175,0.07561050863397518
4.012225618227285,-0.00511754544817286
4.015004167824396,0.05583034367525803
4.017782717421507,0.018863849755947383
4.020561267018617,0.015588064169982293
4.023339816615727,-0.08882758269454363
4.026118366212837,0.0075301574934542705
4.0288969158099475,-0.0018779995981183975
4.031675465407058,0.040707478631391826
4.034454015004168,0.07696311636233012
4.037232564601278,-0.12448066545389401
4.040011114198388,0.05564975760693146
4.042789663795499,-0.0747806748972726
4.04556821339261,0.04808401965657549
4.04834676298972,-0.018282431529462816
4.05112531258683,0.020860807997458285
4.05390386218394,0.030445554838452977
4.0566824117810505,0.0842962550208746
4.059460961378161,0.042724607087952664
4.062239510975271,0.06678489953173926
4.065018060572381,0.0023273834953986697
4.067796610169492,-0.04602918187236912
4.0705751597666024,-0.09559985602678349
4.073353709363713,-0.05845281708375999
4.076132258960823,-0.037816511905114494
4.078910808557933,-0.07869436162816147
4.081689358155043,0.018452238283004782
4.0844679077521535,-4.595344307145935e-05
4.087246457349264,0.04361242645014073
4.090025006946374,-0.008020845006624887
4.092803556543485,0.02169459023188499
4.095582106140595,0.09728532024777466
4.0983606557377055,-0.06604639112436667
4.101139205334816,0.15980675810264178
4.103917754931926,0.1462480310336263
4.106696304529036,0.14300289743067415
4.109474854126146,0.28171169537493385
4.1122534037232565,0.2722649425827645
4.115031953320367,0.1729169687428512
4.117810502917477,0.3322931579048542
4.120589052514588,0.32663785094893516
4.123367602111698,0.1930731887490194
4.1261461517088085,0.26149580973383346
4.128924701305919,0.3224441917648817
4.131703250903029,0.1834375441215568
4.134481800500139,0.20259621581693166
4.137260350097249,0.11225376999043118
4.14003889969436,0.14856053115515133
4.14281744929147,0.12042690832347101
4.145595998888581,-0.029708585002755375
4.148374548485691,0.11371904520987644
4.151153098082801,0.07359151843765065
4.1539316476799115,-0.01966216693984488
4.156710197277022,-0.014971696794045634
4.159488746874132,0.04174864090083542
4.162267296471242,0.09021469284950578
4.165045846068352,0.2719811185805495
4.167824395665463,0.2796485965380423
4.170602945262574,0.6889792184322673
4.173381494859684,0.9920923063826357
4.176160044456794,1.321576787856472
4.178938594053904,1.4221988805935855
4.1817171436510145,1.4618567497346489
4.184495693248125,1.2458084746241647
4.187274242845235,0.8253929746756095
4.190052792442345,0.5956405398779626
4.192831342039455,0.24314134851288627
4.195609891636566,0.15059108982514546
4.198388441233677,0.0929761989825513
4.201166990830787,-0.028089387521337085
4.203945540427897,0.10505591859535637
4.206724090025007,0.06544789556734724
4.209502639622118,-0.08016359185649774
4.212281189219228,0.00863094350690506
4.215059738816338,0.0681388233904553
4.217838288413448,0.07701526222438515
4.220616838010558,-0.009620052851630938
4.2233953876076695,0.029412008050604625
4.22617393720478,-0.03408570692914944
4.22895248680189,-0.0966708174309125
4.231731036399,0.06810129529186452
4.23450958599611,-0.02578299848660357
4.237288135593221,0.049716294426023294
4.240066685190331,0.057379534705992774
4.242845234787441,0.010598298050166708
4.245623784384551,-0.0349516956566145
4.248402333981662,0.026425333699752102
4.2511808835787726,0.006596427461821992
4.253959433175883,-0.0873751054839006
4.256737982772993,-0.041890687605930246
4.259516532370103,-0.04702403882908643
4.262295081967213,0.025343351733333613
4.265073631564324,-0.03807612316527903
4.267852181161434,-0.017651815435522498
4.270630730758544,0.03494466338406813
4.273409280355654,-0.006376732917280795
4.276187829952765,0.049085317782555406
4.278966379549876,0.02571271611980514
4.281744929146986,-0.09777460076711676
4.284523478744096,-0.12462624310601629
4.287302028341206,-0.013136592020772268
4.290080577938316,0.04165937241141353
4.292859127535427,0.03696817371526527
4.295637677132537,-0.07225188599876373
4.298416226729647,0.014770572240540507
4.301194776326758,-0.0016326728053188515
4.303973325923868,0.05613600409034242
4.306751875520979,-0.012841800961237621
4.309530425118089,0.03287453284233888
4.312308974715199,0.0027661985796532534
4.315087524312309,0.09471551928508881
4.3178660739094195,0.07245361722038679
4.32064462350653,0.07825127765681605
4.32342317310364,0.10919959335804111
4.32620172270075,0.08041518908320772
4.328980272297861,0.10864937892471581
4.331758821894971,0.19777655739480196
4.334537371492082,0.14714456540876233
4.337315921089192,0.18150428002218505
4.340094470686302,0.1496099005571952
4.342873020283412,0.21978589253501732
4.3456515698805225,0.2660357774951694
4.348430119477633,0.34657165464092743
4.351208669074743,0.36178267351009535
4.353987218671854,0.36207221982501037
4.356765768268964,0.376856539935415
4.359544317866074,0.3648553268736377
4.362322867463185,0.3862544456858747
4.365101417060295,0.37860326173975284
4.367879966657405,0.3310182753507439
4.370658516254515,0.3496547210916144
4.3734370658516255,0.32454435210306964
4.376215615448736,0.27707621890042455
4.378994165045847,0.2068606766851961
4.381772714642957,0.24715216610803462
4.384551264240067,0.18843348807478671
4.3873298138371775,0.12119543403873528
4.390108363434288,0.12130825027616739
4.392886913031398,0.13187469253095285
4.395665462628508,0.12808303285275122
4.398444012225618,0.17929889584409825
4.4012225618227285,0.018925534063047665
4.404001111419839,0.1288472179356557
4.40677966101695,0.04125459100097374
4.40955821061406,0.018154165477888506
4.41233676021117,0.05594324297612006
4.4151153098082805,-0.0026422806123554306
4.417893859405391,-0.0026831134303219144
4.420672409002501,0.07365493938402762
4.423450958599611,0.058718296962705786
4.426229508196721,-0.05584065563914553
4.4290080577938316,-0.06919666256536507
4.431786607390943,-0.003657339381545983
4.434565156988053,-0.013706542730206942
4.437343706585163,-0.011291217102425135
4.440122256182273,0.0394099985840385
4.4429008057793835,-0.04110794265717556
4.445679355376494,0.021000624234893146
4.448457904973604,0.07285996573921562
4.451236454570714,-0.11185341950915421
4.454015004167824,0.024384479422426338
4.4567935537649355,0.030012495986450467
4.459572103362046,0.007078261628558173
4.462350652959156,0.019851460940313183
4.465129202556266,-0.04388549567864824
4.467907752153376,-0.002304193020702826
4.4706863017504865,-0.07647283266121496
4.473464851347597,-0.010509596881407799
4.476243400944707,0.019863562708484776
4.479021950541817,0.035107684752191344
4.481800500138927,0.02188927140769605
4.4845790497360385,0.06027831721328786
4.487357599333149,-0.017925969661700094
4.490136148930259,0.06827618309099913
4.492914698527369,0.05283270563918591
4.495693248124479,0.06674536619836992
4.49847179772159,0.05933519882825379
4.5012503473187,0.026660233152338193
4.50402889691581,-0.012389298966104616
4.50680744651292,0.03801091818786972
4.509585996110031,-0.01852483865313525
4.5123645457071415,-0.062376166437699276
4.515143095304252,-0.01197133636416776
4.517921644901362,0.0078481606283303
4.520700194498472,-0.03294742107521667
4.523478744095582,-0.006624316242106465
4.526257293692693,-0.01683943515965764
4.529035843289803,0.03364258165372563
4.531814392886913,-0.03224462804654887
4.534592942484024,0.0696140443071609
4.537371492081134,0.08449259028799647
4.5401500416782445,-0.015014543339865998
4.542928591275355,0.016893440761568776
4.545707140872465,0.04351737803799561
4.548485690469575,0.0481415542157097
4.551264240066685,-0.021675409513273156
4.554042789663796,0.0649115127049197
4.556821339260906,-0.0067254735289540854
4.559599888858016,0.0018740185580448485
4.562378438455127,0.0007751946785443443
4.565156988052237,-0.016510354900439592
4.567935537649348,0.08353335473500692
4.570714087246458,0.04457370943313813
4.573492636843568,0.015049906641890291
4.576271186440678,0.054142966863166914
4.579049736037788,0.03826313728317698
4.581828285634899,0.06305341833039828
4.584606835232009,0.02986189149571701
4.58738538482912,-0.10510673981187335
4.59016393442623,-0.011315369458958465
4.59294248402334,-0.03147651178130301
4.595721033620451,0.1223688939711382
4.598499583217561,-0.03460731381470294
4.601278132814671,-0.0076034530997818655
4.604056682411781,0.011011993598714312
4.6068352320088914,0.05035537271288862
4.609613781606002,-0.010605936924866093
4.612392331203113,-0.02872222107977229
4.615170880800223,0.005023015917672305
4.617949430397333,0.033986943482341735
4.620727979994443,-0.12683284742754075
4.623506529591554,0.0478160328285583
4.626285079188664,-0.0060934213447827
4.629063628785774,-0.057047993640447804
4.631842178382884,-0.022868414723116966
4.6346207279799945,0.032669073868276235
4.637399277577105,-0.07425306350594578
4.640177827174216,0.011530183137791026
4.642956376771326,0.04745212451456729
4.645734926368436,-0.01054948292955446
4.648513475965546,-0.00010352065798683478
4.651292025562657,-0.045724065619505476
4.654070575159767,-0.05547725178402964
4.656849124756877,0.03365638227378693
4.659627674353987,-0.02369087974525503
4.6624062239510975,0.02955168988478368
4.665184773548209,-0.04084955534694755
4.667963323145319,-0.04153501237314373
4.670741872742429,0.033361373820384316
4.673520422339539,-0.056227124826675995
4.6762989719366495,0.009346203321511901
4.67907752153376,0.09786754092004557
4.68185607113087,-0.015109605293504231
4.68463462072798,0.03326488101152967
4.68741317032509,0.06727279531821435
4.690191719922201,0.10677402754826071
4.692970269519312,-0.07010745516814569
4.695748819116422,-0.04865606078950046
4.698527368713532,-0.036083200375407944
4.701305918310642,-0.02014303618766837
4.7040844679077525,-0.00231519958265988
4.706863017504863,0.03686233164476321
4.709641567101973,0.031723035771825336
4.712420116699083,0.0016370317374307807
4.715198666296193,-0.035267859734338956
4.717977215893304,0.011588437968228366
4.720755765490415,0.06212047580677915
4.723534315087525,0.04281109937001679
4.726312864684635,0.04372451901410335
4.729091414281745,-0.08495078489227219
4.7318699638788555,-0.0013996044969683261
4.734648513475966,-0.03901432988587232
4.737427063073076,0.07660138173283965
4.740205612670186,-0.005160338975088364
4.742984162267297,0.05133308679552315
4.7457627118644075,0.007216923313597673
4.748541261461518,-0.013875816481638532
4.751319811058628,-0.09486651097133034
4.754098360655738,0.055489691613967954
4.756876910252848,-0.03102790204562983
4.7596554598499585,0.029453832383127494
4.762434009447069,-0.00535088318900119
4.765212559044179,-0.05645666377753921
4.767991108641289,-0.04472258265649944
4.7707696582384,0.05126178245767848
4.7735482078355105,0.024941117577247044
4.776326757432621,-0.015718829159697974
4.779105307029731,-0.03784794888668905
4.781883856626841,-0.01700947479738083
4.784662406223951,0.0874454634930483
4.7874409558210616,-0.028912458264862505
4.790219505418172,-0.011935718833272267
4.792998055015282,0.012464407330180798
4.795776604612393,-0.010513764624920686
4.798555154209503,0.05256795365740853
4.8013337038066135,0.010260820843943098
4.804112253403724,-0.030698511411131994
4.806890803000834,-0.02067751663647714
4.809669352597944,0.055607116652797925
4.812447902195054,0.03076587903418175
4.815226451792165,-0.08746827750278634
4.818005001389275,-0.006523572293726164
4.820783550986386,-0.08520885494162256
4.823562100583496,0.021294456148960132
4.826340650180606,0.029843273844732645
4.8291191997777165,-0.022331623675098815
4.831897749374827,-0.02064122763870717
4.834676298971937,-0.025694940582776056
4.837454848569047,0.049971578950552924
4.840233398166157,-0.024050658824917814
4.843011947763268,0.021539156986064394
4.845790497360378,-0.00010601276921436048
4.848569046957489,-0.005839877771276848
4.851347596554599,0.04452142639091645
4.854126146151709,-0.030942379479878077
4.85690469574882,0.002009828141027953
4.85968324534593,0.01271980988695378
4.86246179494304,0.017361810350187766
4.86524034454015,0.07002920920049693
4.86801889413726,-0.060227980190956806
4.870797443734371,0.010892060737139123
4.873575993331482,-0.01793291760716327
4.876354542928592,-0.00968357928905796
4.879133092525702,0.017137458675218646
4.881911642122812,0.039972741739710355
4.884690191719923,-0.05130897809513488
4.887468741317033,0.06852885805333031
4.890247290914143,0.04463510659249816
4.893025840511253,0.06562944328110012
4.895804390108363,0.013594112705491573
4.8985829397054745,0.13771596872558806
4.901361489302585,0.06928195637404808
4.904140038899695,0.10123309630974546
4.906918588496805,0.15985663237358844
4.909697138093915,0.2201341593476139
4.912475687691026,0.26799123721172713
4.915254237288136,0.19386591871731146
4.918032786885246,0.13059093046881903
4.920811336482356,0.1737983288060539
4.9235898860794665,0.290321093566554
4.926368435676578,0.24139765866854393
4.929146985273688,0.1713776693641585
4.931925534870798,0.28365936800801234
4.934704084467908,0.19592815877021308
4.937482634065018,0.1687088862889768
4.940261183662129,0.13906486983411578
4.943039733259239,0.07219452287595395
4.945818282856349,0.0754370083724361
4.948596832453459,0.09339377072308488
4.95137538205057,0.09583231202820605
4.954153931647681,0.07510831791004216
4.956932481244791,0.03728424079931741
4.959711030841901,0.0637284056226387
4.962489580439011,0.036292811339107195
4.965268130036121,0.18943358562590146
4.968046679633232,0.39739466346086894
4.970825229230342,0.6673222126300161
4.973603778827452,1.0124479912265067
4.976382328424563,1.2556568863086601
4.979160878021673,1.4915906956612333
4.981939427618784,1.4294953893048425
4.984717977215894,1.1487160650647836
4.987496526813004,0.8560563158317411
4.990275076410114,0.5830530880140319
4.9930536260072245,0.3067924428550497
4.995832175604335,0.0234231475180795
4.998610725201445,-0.013622187982382634
5.001389274798555,-0.02885809488366107
5.004167824395666,0.022157241496363247
5.006946373992776,0.04734369119126074
5.009724923589887,-0.025690114804247342
5.012503473186997,0.04695793701092762
5.015282022784107,-0.0007478429967418799
5.018060572381217,-0.04442386303409409
5.0208391219783275,-0.016710505056608312
5.023617671575438,-0.04869596600278389
5.026396221172548,-0.050982789357921464
5.029174770769659,-0.03240213639133933
5.031953320366769,-0.10012839378593763
5.0347318699638794,-0.07072287206612606
5.03751041956099,-0.10854407941889059
5.0402889691581,0.040517161966948746
5.04306751875521,-0.07638671563071768
5.04584606835232,-0.015928515664549777
5.0486246179494305,0.017959264582729784
5.051403167546541,-0.00169915436956045
5.054181717143652,-0.023417935502100258
5.056960266740762,0.09037106245577463
5.059738816337872,-0.00041033124144596516
5.0625173659349825,-0.022623649398243465
5.065295915532093,-0.021350378466408027
5.068074465129203,0.029414720101253358
5.070853014726313,-0.008857501497414684
5.073631564323423,-0.021706578056697526
5.0764101139205335,0.032624714631425335
5.079188663517644,0.005631184082238408
5.081967213114755,0.04743634538106847
5.084745762711865,0.0056187193172191315
5.087524312308975,-0.02973283804308457
5.0903028619060855,-0.0065251394118617315
5.093081411503196,-0.07861707099571046
5.095859961100306,-0.08434205163405332
5.098638510697416,-0.09350370894264552
5.101417060294526,0.08256145873712373
5.104195609891637,0.009899588639452834
5.106974159488748,-0.043776526434989776
5.109752709085858,0.0630746838502653
5.112531258682968,0.005971323985440296
5.115309808280078,0.019939481714455823
5.1180883578771885,0.10961775049029045
5.120866907474299,-0.01986343843560673
5.123645457071409,0.09372522774575819
5.126424006668519,0.11314974819625855
5.129202556265629,0.18434108653149148
5.1319811058627405,0.19357999389798436
5.134759655459851,0.1451257420215688
5.137538205056961,0.21222663480086482
5.140316754654071,0.16646573235640216
5.143095304251181,0.26825413418464733
5.1458738538482915,0.3391765764440375
5.148652403445402,0.2915142323407851
5.151430953042512,0.28301799351432305
5.154209502639622,0.36303347750427467
5.156988052236732,0.38658288280824005
5.1597666018338435,0.2896007849001671
5.162545151430954,0.2679726499875673
5.165323701028064,0.38178971283738344
5.168102250625174,0.3432565403321267
5.170880800222284,0.28131038520024065
5.173659349819395,0.20104656742424776
5.176437899416505,0.30263088934311577
5.179216449013615,0.23846078856636307
5.181994998610725,0.2817440748346321
5.184773548207836,0.18151750774968106
5.1875520978049465,0.1618965195828682
5.190330647402057,0.157760601147028
5.193109196999167,0.01248563519423887
5.195887746596277,0.06988514715227698
5.198666296193387,0.13411097809885109
5.201444845790498,0.01223004441924777
5.204223395387608,0.07093842937158884
5.207001944984718,-0.006126333142548131
5.209780494581829,0.050842959755902875
5.212559044178939,0.02221514912308134
5.2153375937760496,-0.0026315698148876923
5.21811614337316,-0.01805250978273317
5.22089469297027,0.016103439647405658
5.22367324256738,-0.012300833568045259
5.22645179216449,0.008354577678974979
5.229230341761601,-0.09532836421777388
5.232008891358711,-0.02373800851909344
5.234787440955821,-0.021581116511172213
5.237565990552932,0.036598016594854205
5.240344540150042,-0.0633325141763866
5.243123089747153,0.01548466818873231
5.245901639344263,-0.031543956627509966
5.248680188941373,-0.06368334745008071
5.251458738538483,-0.08702693629525922
5.254237288135593,-0.028166944049380443
5.257015837732704,0.024321761859685286
5.259794387329814,-0.01657956723081012
5.262572936926925,-0.04837994715625049
5.265351486524035,-0.04834036276918359
5.268130036121145,-0.11584718400551093
5.270908585718256,0.027255781198857573
5.273687135315366,-0.017014998913158684
5.276465684912476,0.15691163866752747
5.279244234509586,0.014551336229732932
5.2820227841066965,0.09520347996708271
5.284801333703807,0.02306686386983809
5.287579883300917,-0.07845440054640734
5.290358432898028,0.07193738329500698
5.293136982495138,-0.026247815602325884
5.295915532092248,-0.018771265422669776
5.298694081689359,0.014480327424339391
5.301472631286469,0.03915458339344935
5.304251180883579,-0.011738983385716217
5.307029730480689,-0.0854136273439283
5.3098082800777995,0.027753882919283344
5.31258682967491,0.03392911011702903
5.315365379272021,0.031033412276430514
5.318143928869131,0.012312525316503486
5.320922478466241,-0.006944703238920064
5.323701028063351,0.07345025077597102
5.326479577660462,-0.006611853357236439
5.329258127257572,-0.023386070932151587
5.332036676854682,-0.033560208433714725
5.334815226451792,0.04122517878758015
5.3375937760489025,-0.09729858488009727
5.340372325646014,0.07356951326378394
5.343150875243124,-0.06009498586902497
5.345929424840234,0.005372593835131004
5.348707974437344,-0.006351234201740506
5.3514865240344545,-0.06606861193381963
5.354265073631565,0.02132678630538966
5.357043623228675,0.041522458863960304
5.359822172825785,-0.06350090033205978
5.362600722422895,-0.020250241213373568
5.3653792720200055,-0.028191199419797287
5.368157821617117,-0.0818779397124714
5.370936371214227,0.006354854045456138
5.373714920811337,0.0023225246056365035
5.376493470408447,0.04417884495007422
5.3792720200055575,-0.012739029136631365
5.382050569602668,-0.052426189907961954
5.384829119199778,0.03253536170557048
5.387607668796888,-0.05023428064103813
5.390386218393998,0.03444131375608484
5.393164767991109,-0.06566792533519927
5.39594331758822,-0.004265654674726711
5.39872186718533,0.03560816105758176
5.40150041678244,0.017393878897535433
5.40427896637955,-0.06742021581364051
5.4070575159766605,-0.08696754405957634
5.409836065573771,0.002400627467942573
5.412614615170881,0.07461821809379898
5.415393164767991,0.02121011388464844
5.418171714365102,0.0233586250715459
5.4209502639622125,-0.052553528450473314
5.423728813559323,0.0024006114404723374
5.426507363156433,0.10425706349588196
5.429285912753543,0.005091914122916204
5.432064462350653,0.07954305518315746
5.4348430119477635,0.007206727712904789
5.437621561544874,0.0448368308412304
5.440400111141984,0.040612511453925706
5.443178660739094,0.031671330448845854
5.445957210336205,0.01705047989770735
5.4487357599333155,-0.039384175235353265
5.451514309530426,0.06468864130888106
5.454292859127536,0.03380657193495
5.457071408724646,-0.005792396523471355
5.459849958321756,-0.0226847567916873
5.462628507918867,0.0327801440120381
5.465407057515977,0.07468317366987685
5.468185607113087,-0.03493232348532928
5.470964156710198,0.07283687025320525
5.473742706307308,-0.027480999426595216
5.4765212559044185,-0.04385921160999637
5.479299805501529,-0.05250664986316498
5.482078355098639,0.05694907555752465
5.484856904695749,0.10990340749898604
5.487635454292859,-0.08391340478802761
5.49041400388997,0.017209155398430633
5.49319255348708,-0.04226207618871916
5.495971103084191,-0.005770810397652683
5.498749652681301,-0.013859468950164806
5.501528202278411,-0.015443703684795432
5.5043067518755215,-0.023713451564758917
5.507085301472632,-0.00904486482876562
5.509863851069742,-0.004117675691212228
5.512642400666852,-0.058918462744923926
5.515420950263962,-0.06340699882140625
5.518199499861073,-0.03181577537893461
5.520978049458183,-0.01847920433205866
5.523756599055294,0.10332283968090594
5.526535148652404,0.06866004393196568
5.529313698249514,-0.018634309863702278
5.532092247846625,0.030961484497445634
5.534870797443735,-0.09131808014922997
5.537649347040845,0.05933975860898762
5.540427896637955,-0.011626813345732432
5.543206446235065,-0.04188723557111986
5.545984995832176,0.12943663233556438
5.548763545429287,0.03578283503331744
5.551542095026397,0.06582810690503871
5.554320644623507,0.025396570989189148
5.557099194220617,-0.007355382284617829
5.559877743817728,0.07935984432382769
5.562656293414838,0.04549853947487198
5.565434843011948,0.09531751789118761
5.568213392609058,0.10816028008970541
5.5709919422061684,0.12509056872517346
5.5737704918032795,0.15840371419698612
5.57654904140039,0.3636303112211676
5.5793275909975,0.4758158988537628
5.58210614059461,0.7434889404180988
5.58488469019172,0.9130712969983859
5.587663239788831,1.2453374128882821
5.590441789385941,1.441958556293688
5.593220338983051,1.7438969432142657
5.595998888580161,1.9244887933315478
5.5987774381772715,1.9940132069050638
5.601555987774383,1.9656667399515964
5.604334537371493,1.9405452198133726
5.607113086968603,1.6707011417325566
5.609891636565713,1.4034123388678723
5.612670186162823,1.0912112699124734
5.615448735759934,0.8816731001653733
5.618227285357044,0.7084353951371876
5.621005834954154,0.4705920394301331
5.623784384551264,0.42073792564807333
5.626562934148375,0.281585863842042
5.629341483745486,0.07883801949642391
5.632120033342596,0.07292455166209356
5.634898582939706,0.08893132988290159
5.637677132536816,-0.06913771801358308
5.6404556821339265,0.016832563573401897
5.643234231731037,-0.07901281755139075
5.646012781328147,0.01434454116321953
5.648791330925257,-0.09042431782251664
5.651569880522368,-0.006755081718383683
5.654348430119478,0.06116695374255889
5.657126979716589,0.03775079387137146
5.659905529313699,-0.04311667950073799
5.662684078910809,0.00605388574574244
5.665462628507919,-0.03403574006558557
5.6682411781050295,-0.024172220064732134
5.67101972770214,0.02230094888976646
5.67379827729925,-0.048393218895500995
5.67657682689636,0.02323341408676567
5.679355376493471,-0.030545201101738646
5.682133926090581,-0.016753683847888733
5.684912475687692,0.002174916117478258
5.687691025284802,-0.04260114766137015
5.690469574881912,0.011066008534414123
5.693248124479022,0.1539979397379029
5.6960266740761325,0.04168969031944102
5.698805223673243,-0.04804925771527489
5.701583773270353,0.002424753704129353
5.704362322867464,-0.08242327907729427
5.707140872464574,0.01923373009264202
5.7099194220616845,0.027067003651137525
5.712697971658795,0.07544159610436446
5.715476521255905,-0.021398235174228376
5.718255070853015,0.03267928691299415
5.721033620450125,-0.03439010997165342
5.7238121700472355,0.028268794100774066
5.726590719644346,-0.022147816341685167
5.729369269241456,-0.012305374306922464
5.732147818838567,0.03890052688265509
5.734926368435677,0.015825583581697632
5.7377049180327875,-0.028821245824388064
5.740483467629898,-0.041311700813622225
5.743262017227008,-0.03401852803929419
5.746040566824118,-0.09165720705894119
5.748819116421228,-0.03729139513256772
5.7515976660183386,-0.03525345314122074
5.754376215615449,-0.047777006526049375
5.75715476521256,0.06422182735442607
5.75993331480967,0.04670154065034594
5.76271186440678,0.02261045474069888
5.7654904140038905,-0.0664805223033484
5.768268963601001,-0.043183129777012566
5.771047513198111,0.029940197781791016
5.773826062795221,-0.0632143421812971
5.776604612392331,0.05897711627889527
5.779383161989442,-0.07588254785176021
5.782161711586553,-0.002441385656690927
5.784940261183663,0.09822006567037236
5.787718810780773,-0.06524490627804243
5.790497360377883,-0.030280707172024697
5.7932759099749935,0.03958149513963095
5.796054459572104,0.054307774765543916
5.798833009169214,0.05282479625013651
5.801611558766324,0.08195815032746945
5.804390108363434,-0.0011231414439677205
5.807168657960545,-0.008673167158630084
5.809947207557656,0.030078729170618365
5.812725757154766,-0.025582174293210688
5.815504306751876,0.01966598227200717
5.818282856348986,0.03702903944071844
5.821061405946097,0.05371565127468822
5.823839955543207,-0.0611676708075688
5.826618505140317,-0.01559726293500374
5.829397054737427,0.004699848146821681
5.832175604334537,0.04694942160729886
5.8349541539316485,-0.06987304354345067
5.837732703528759,0.014708875069376102
5.840511253125869,0.03678653759235928
5.843289802722979,-0.1097987212364918
5.846068352320089,-0.03650331411195115
5.8488469019172,-0.11858626484627359
5.85162545151431,0.11603543674099315
5.85440400111142,0.008585466593861186
5.85718255070853,-0.004111951533068188
5.859961100305641,0.010064941085899361
5.8627396499027515,-0.09503979675055416
5.865518199499862,0.01980298953427822
5.868296749096972,-0.08829194410300462
5.871075298694082,-0.0005643296596903767
5.873853848291192,-0.047620672940128
5.876632397888303,-0.016006833057768097
5.879410947485413,-0.004598221214951608
5.882189497082523,-0.036106968734230784
5.884968046679633,-0.09019856160703409
5.887746596276744,-0.08973497913540154
5.890525145873855,-0.0983217834402729
5.893303695470965,-0.06328071464145339
5.896082245068075,-0.08652694775072972
5.898860794665185,-0.13797612596614683
5.901639344262295,-0.12567997434527936
5.904417893859406,-0.05148940591525783
5.907196443456516,-0.20614603890495636
5.909974993053626,-0.12406059368491948
5.912753542650737,-0.20060402618268935
5.915532092247847,-0.23459056254783076
5.918310641844958,-0.3045343488079823
5.921089191442068,-0.3701738368512879
5.923867741039178,-0.23189943709918204
5.926646290636288,-0.36848881609510775
5.929424840233398,-0.47503211888302227
5.932203389830509,-0.4110811886733852
5.934981939427619,-0.3844901539161396
5.93776048902473,-0.3990668043559823
5.94053903862184,-0.4800561482579977
5.94331758821895,-0.49115894936767873
5.946096137816061,-0.48083564234877657
5.948874687413171,-0.5341548070189458
5.951653237010281,-0.42124765430534383
5.954431786607391,-0.4161047581421861
5.9572103362045015,-0.4738846325528485
5.959988885801612,-0.4019269898183083
5.962767435398722,-0.38525184140604274
5.965545984995833,-0.47055418671818033
5.968324534592943,-0.3902876163585052
5.971103084190053,-0.374056512533478
5.973881633787164,-0.2858788758892681
5.976660183384274,-0.3027750712134328
5.979438732981384,-0.20186719286505372
5.982217282578494,-0.20948097765096027
5.9849958321756045,-0.20018689017420283
5.987774381772715,-0.1877888879955206
5.990552931369826,-0.07595028711520549
5.993331480966936,-0.24774049652447497
5.996110030564046,-0.12336552302427488
5.9988885801611564,-0.14511340729944402
6.001667129758267,0.03553757874367708
6.004445679355377,0.006735904769336734
6.007224228952487,-0.05544386398508893
6.010002778549597,0.0076620380797260065
6.0127813281467075,-0.04276250186911394
6.015559877743819,-0.03647009776999731
6.018338427340929,0.015331219008501634
6.021116976938039,0.019742805023461606
6.023895526535149,-0.0754613039244786
6.0266740761322595,-0.054565529873316525
6.02945262572937,-0.035993060131382634
6.03223117532648,-0.06243245912426043
6.03500972492359,0.13657611083057486
6.0377882745207,0.046008763697076946
6.0405668241178105,-0.021935861181098144
6.043345373714922,0.00738008655198597
6.046123923312032,-0.06528924564361818
6.048902472909142,-0.010405227435535923
6.051681022506252,0.09311287593451742
6.0544595721033625,0.02664100144898998
6.057238121700473,0.013348560921010283
6.060016671297583,-0.009238949274456811
6.062795220894693,-0.012285791290673871
6.065573770491803,-0.09761993905486921
6.0683523200889145,0.1495146865823788
6.071130869686025,0.039801127376966935
6.073909419283135,-0.008896723809629886
6.076687968880245,-0.024582223040963892
6.079466518477355,0.03937340161319071
6.0822450680744655,0.001747244347104749
6.085023617671576,-0.011349879978258488
6.087802167268686,0.017667170773265316
6.090580716865796,-0.04699082210276054
6.093359266462907,0.009333442341170914
6.0961378160600175,-0.11663913151727535
6.098916365657128,-0.032092156802777515
6.101694915254238,-0.03029010687112472
6.104473464851348,-0.0006527235768574021
6.107252014448458,0.021133203604027317
6.1100305640455685,0.012110511497626975
6.112809113642679,0.04051479096211934
6.115587663239789,0.0010246356589587334
6.118366212836899,0.0023382251084941917
6.12114476243401,0.020974131183879103
6.1239233120311205,-0.01800042246512903
6.126701861628231,0.04508775818585652
6.129480411225341,-0.05724926251345151
6.132258960822451,-0.09469382108410246
6.135037510419561,-0.004839790647357906
6.137816060016672,-0.0013320613985625762
6.140594609613782,-0.019876656420446823
6.143373159210892,0.045287694901120674
6.146151708808003,-0.08859664212796331
6.148930258405113,-0.07428852364974622
6.1517088080022235,0.04908118365544696
6.154487357599334,-0.0428165241626903
6.157265907196444,0.06577610684241403
6.160044456793554,-0.06697203094940514
6.162823006390664,-0.007200444213729257
6.165601555987775,0.051497097426863404
6.168380105584885,0.011955408243387316
6.171158655181995,0.028186537449526382
6.173937204779106,0.0045684215056451625
6.176715754376216,0.018208189670082656
6.1794943039733266,0.0010454058914349776
6.182272853570437,0.011509731130191074
6.185051403167547,0.07831253427026683
6.187829952764657,0.04217385827215544
6.190608502361767,0.04326556140734366
6.193387051958878,-0.08180941675759335
6.196165601555988,-0.03938615932670336
6.198944151153099,0.0884443701085051
6.201722700750209,-0.008579535932179081
6.204501250347319,0.028032320154514418
6.20727979994443,0.09681921490004916
6.21005834954154,0.02841775864555627
6.21283689913865,0.02298901461760325
6.21561544873576,-0.043998591240845236
6.21839399833287,0.031511447310598004
6.221172547929981,-0.07546977543370594
6.223951097527092,-0.017388445225133924
6.226729647124202,-0.021206168347645674
6.229508196721312,0.004264409010971082
6.232286746318422,0.0030216764973339033
6.235065295915533,-0.018243163703936933
6.237843845512643,0.03351196517627452
6.240622395109753,-0.019062938701283748
6.243400944706863,-0.01415408864576031
6.2461794943039735,0.09986669902750778
6.248958043901084,-0.07973417076923435
6.251736593498195,-0.05808352588142714
6.254515143095305,-0.03898763028589963
6.257293692692415,0.03934051402608248
6.260072242289525,-0.03173966542277412
6.262850791886636,0.09393494755290227
6.265629341483746,-0.09879557418905695
6.268407891080856,-0.07444403158658784
6.271186440677966,0.033628365804086256
6.2739649902750765,-0.050455728709128844
6.276743539872188,-0.10019450559613943
6.279522089469298,-0.025409277247757683
6.282300639066408,0.08502388275311842
6.285079188663518,-0.020691607051129796
6.287857738260628,-0.008301421391238637
6.290636287857739,-0.047233088034697876
6.293414837454849,0.017418142210587625
6.296193387051959,-0.01219117801914775
6.298971936649069,0.03879203485747299
6.30175048624618,0.09345329566277988
6.304529035843291,-0.009597917484715456
6.307307585440401,-0.09057357548646892
6.310086135037511,-0.0006345376160724359
6.312864684634621,0.04949938906993028
6.3156432342317315,0.018785434915975757
6.318421783828842,-0.07309718211548628
6.321200333425952,-0.06795209571729348
6.323978883023062,-0.0625027174110243
6.326757432620172,0.013968508881471262
6.329535982217283,0.005932458959722265
6.332314531814394,0.08763951910726765
6.335093081411504,0.045965792377521644
6.337871631008614,0.05234615698490043
6.340650180605724,-0.019163009100764412
6.3434287302028345,-0.00021134961750166352
6.346207279799945,-0.014558079414665782
6.348985829397055,-0.012612856562075442
6.351764378994165,0.015472509766289244
6.354542928591276,0.001151036113440364
6.357321478188386,0.03760687711604775
6.360100027785497,-0.0038657988126526675
6.362878577382607,-0.014413452185070758
6.365657126979717,0.01578666332265129
6.368435676576827,-0.12192699736602292
6.3712142261739375,0.04302778195645432
6.373992775771048,0.004988661948523824
6.376771325368158,0.027026310068681697
6.379549874965269,-0.05539559386021586
6.382328424562379,0.036158795877809055
6.3851069741594895,-0.057022170963470745
6.3878855237566,0.005023036977513019
6.39066407335371,0.01952142868745219
6.39344262295082,-0.04595433330431938
6.39622117254793,-0.04485085932043699
6.3989997221450405,0.014492527029023183
6.401778271742151,0.010027252302997882
6.404556821339261,-0.12219784459834623
6.407335370936372,0.0025353324813462974
6.410113920533482,0.049773405012631784
6.4128924701305925,0.1074581143656941
6.415671019727703,0.03712625788849576
6.418449569324813,-0.03947172861646861
6.421228118921923,0.11226292021861212
6.424006668519033,0.000942312717022258
6.426785218116144,-0.07502553600258006
6.429563767713254,-0.0016452960894285473
6.432342317310365,-0.002875100581195247
6.435120866907475,-0.036445753068838
6.437899416504585,-0.0226421549735629
6.4406779661016955,-0.0552652880164038
6.443456515698806,0.04508591144137157
6.446235065295916,0.049459601043032216
6.449013614893026,0.006529003742718016
6.451792164490136,-0.009524632802741684
6.454570714087247,-0.012816740036889604
6.457349263684358,0.028469785527863976
6.460127813281468,0.02119369886327552
6.462906362878578,0.03188934398464943
6.465684912475688,0.09532645450916614
6.4684634620727985,-0.09087883967835846
6.471242011669909,-0.05480281469367377
6.474020561267019,0.00011178250168183274
6.476799110864129,-0.03800381179773349
6.479577660461239,0.04712626766780399
6.48235621005835,0.0013040006444600735
6.485134759655461,0.04602664336976906
6.487913309252571,0.08363626412705968
6.490691858849681,0.05703444906476065
6.493470408446791,0.03208830428216443
6.496248958043902,0.04654150374602942
6.499027507641012,0.04536121970253575
6.501806057238122,0.09309531427621741
6.504584606835232,0.16266305936663714
6.507363156432342,0.2232178391171593
6.5101417060294535,0.22207512499607177
6.512920255626564,0.25814552890373316
6.515698805223674,0.1666293650631863
6.518477354820784,0.3241373331145106
6.521255904417894,0.22516386083991552
6.524034454015005,0.25919496486725335
6.526813003612115,0.14045590039340672
6.529591553209225,0.2106080033368414
6.532370102806335,0.1622405618228932
6.535148652403446,0.1591313968802147
6.5379272020005565,0.09873695721945283
6.540705751597667,0.12149240950987832
6.543484301194777,0.052406805621193514
6.546262850791887,0.06088207091746364
6.549041400388997,0.04196054788571216
6.551819949986108,-0.011918987212651118
6.554598499583218,-0.04864206454679916
6.557377049180328,0.03182533676982528
6.560155598777438,-0.034475572849768016
6.562934148374549,0.09323697640912558
6.56571269797166,0.1527747707661583
6.56849124756877,0.42583588396602157
6.57126979716588,0.6472783310432408
6.57404834676299,1.025240853890419
6.5768268963601,1.3128988099660828
6.579605445957211,1.53273864525863
6.582383995554321,1.3057028408557247
6.585162545151431,1.1205422045192792
6.587941094748542,0.8312182375866435
6.590719644345652,0.4530797604945275
6.593498193942763,0.1557460030192579
6.596276743539873,0.047902678694110176
6.599055293136983,-0.018651801245809514
6.601833842734093,-0.06091718245978916
6.6046123923312035,-0.048294786220557565
6.607390941928314,-0.016845967804747886
6.610169491525424,-0.0457255719416849
6.612948041122535,0.04037010610351184
6.615726590719645,-0.001196499938264858
6.618505140316755,0.09876759224661734
6.621283689913866,0.022876669410646987
6.624062239510976,-0.07069627854325182
6.626840789108086,-0.037683370948506635
6.629619338705196,-0.039860962693393426
6.6323978883023065,0.00038253922339030717
6.635176437899417,-0.005150480003986173
6.637954987496527,-0.09163362289031118
6.640733537093638,-0.006567690918184191
6.643512086690748,-0.06106087325598535
6.646290636287858,0.029655779355896274
6.649069185884969,-0.06248024899173008
6.651847735482079,0.04074354387377428
6.654626285079189,-0.04950882335562968
6.657404834676299,-0.01924568408718228
6.6601833842734095,-0.021702120841021643
6.66296193387052,0.027192675845844477
6.665740483467631,-0.08419390744635098
6.668519033064741,0.003522627924795123
6.671297582661851,0.004312373279477069
6.6740761322589615,-0.005248803687864819
6.676854681856072,-0.048886021626359806
6.679633231453182,-0.07891474006549004
6.682411781050292,-0.0007450407329477911
6.685190330647402,-0.030867871712032834
6.6879688802445125,0.044897245742220995
6.690747429841623,0.1201230534129927
6.693525979438734,-0.017215975137100267
6.696304529035844,-0.04146055527014381
6.699083078632954,-0.032581542309675554
6.7018616282300645,-0.03872622563562571
6.704640177827175,0.040043905033062495
6.707418727424285,0.04604373183315599
6.710197277021395,0.03595856466180556
6.712975826618505,0.06457073033347586
6.7157543762156156,0.011644209089780685
6.718532925812727,0.112156576197381
6.721311475409837,0.06619020380351479
6.724090025006947,0.164965239768857
6.726868574604057,0.1444370496943006
6.7296471242011675,0.10056789227680354
6.732425673798278,0.10974655656902851
6.735204223395388,0.15099534642506388
6.737982772992498,0.27852596070229574
6.740761322589608,0.23107484677884213
6.7435398721867195,0.29511874746842715
6.74631842178383,0.34003499314355995
6.74909697138094,0.2704359355655648
6.75187552097805,0.32193351313606217
6.75465407057516,0.3089405179544168
6.7574326201722705,0.3116111819232564
6.760211169769381,0.24338866069544163
6.762989719366491,0.3579806775116924
6.765768268963601,0.321038708270677
6.768546818560711,0.30146651250422885
6.7713253681578225,0.2722647535550796
6.774103917754933,0.3224280109375734
6.776882467352043,0.255148915488022
6.779661016949153,0.2464937151752216
6.782439566546263,0.253079107098849
6.785218116143374,0.17421882496767171
6.787996665740484,0.11143521281846416
6.790775215337594,0.13409066931473115
6.793553764934704,0.0351567615385361
6.796332314531815,0.03265875150120006
6.7991108641289255,0.1290607931622691
6.801889413726036,0.11524907697422757
6.804667963323146,0.15293297094573255
6.807446512920256,0.010521545816453825
6.810225062517366,0.048353850451597284
6.813003612114477,0.035150439452108315
6.815782161711587,0.013836540947267748
6.818560711308697,-0.04351626721478756
6.821339260905808,0.027507665373572295
6.824117810502918,-0.030973239584431288
6.8268963601000285,0.02509346078766462
6.829674909697139,0.03394007992670137
6.832453459294249,-0.0042430063286315245
6.835232008891359,0.0023513214901897924
6.838010558488469,0.08482711848681142
6.84078910808558,-0.02939587180722161
6.84356765768269,0.03904587218906656
6.8463462072798,0.01602378926863078
6.849124756876911,-0.06619528980061927
6.851903306474021,0.11181840562498867
6.854681856071132,0.023893071202447352
6.857460405668242,-0.030662411138621642
6.860238955265352,-0.03134392827222214
6.863017504862462,0.038034300620519
6.865796054459572,0.01415105885006605
6.868574604056683,0.00914348258091073
6.871353153653793,-0.02072020825215507
6.874131703250904,0.06968632232746948
6.876910252848014,0.03936212405614116
6.879688802445124,-0.053512688491566644
6.882467352042235,0.02411954596136975
6.885245901639345,0.015795313003749315
6.888024451236455,0.06737410201802764
6.890803000833565,0.07525750825909669
6.893581550430675,0.09653107509092694
6.896360100027786,0.04881654221610028
6.899138649624897,-0.05729422263822548
6.901917199222007,0.037032412604751146
6.904695748819117,-0.08260970695191457
6.907474298416227,0.026312912814304368
6.910252848013338,-0.09483370379894916
6.913031397610448,-0.06707118257211721
6.915809947207558,-0.0676492379722444
6.918588496804668,-0.028293652993723346
6.9213670464017785,0.05629621741963849
6.924145595998889,-0.0010329888623457526
6.926924145596,-0.1324707544532062
6.92970269519311,0.041132426429863374
6.93248124479022,0.03224280667497005
6.93525979438733,-0.0013938706854913748
6.938038343984441,0.026852105813684284
6.940816893581551,0.013088717701641694
6.943595443178661,0.0910418667718644
6.946373992775771,-0.013825031556153371
6.9491525423728815,0.03221577189291131
6.951931091969993,0.011175564926247716
6.954709641567103,-0.07936148566912042
6.957488191164213,-0.04093061503031364
6.960266740761323,0.07605628832878164
6.9630452903584334,0.008405701504413247
6.965823839955544,0.027273683711372093
6.968602389552654,0.09853976520287791
6.971380939149764,0.060784665276636556
6.974159488746874,0.01865834257123008
6.976938038343985,0.002345220872487504
6.979716587941096,-0.055364824054495526
6.982495137538206,-0.060290213228995616
6.985273687135316,0.009956398287349946
6.988052236732426,0.03150169991659164
6.9908307863295365,-0.10849474042092214
6.993609335926647,0.0421117171950051
6.996387885523757,0.016260388496993388
6.999166435120867,0.0806276660830156
7.001944984717977,-0.07377664605784692
7.004723534315088,-0.04412891813375989
7.007502083912199,0.008304942000771308
7.010280633509309,-0.04001745194948967
7.013059183106419,0.01584244009468035
7.015837732703529,-0.07920886823448904
7.0186162823006395,0.11006847704291489
7.02139483189775,0.007469405637227148
7.02417338149486,0.07533766679386814
7.02695193109197,-0.008436740584806552
7.029730480689081,-0.09836413829344187
7.0325090302861915,-0.0611728965924968
7.035287579883302,0.06595858368879713
7.038066129480412,0.002595305872325089
7.040844679077522,0.03405988960782952
7.043623228674632,-0.05812322102741122
7.0464017782717425,0.017155316445517023
7.049180327868853,-0.020374828791010446
7.051958877465963,0.002697542479941405
7.054737427063074,0.03615598713724174
7.057515976660184,0.08630081327781641
7.0602945262572945,-0.007104875862081162
7.063073075854405,0.04428668913132233
7.065851625451515,-0.07196326936656479
7.068630175048625,-0.014060840554520969
7.071408724645735,0.014369210701919245
7.0741872742428455,-0.03685920687410911
7.076965823839956,-0.042578559332709584
7.079744373437066,0.06911505455350876
7.082522923034177,-0.012452778802453695
7.085301472631287,-0.01339948455675531
7.0880800222283975,0.009188224309469644
7.090858571825508,0.01657871107215294
7.093637121422618,-0.0035172188855560568
7.096415671019728,0.0025187110798438276
7.099194220616838,0.010252939410880929
7.101972770213949,0.014875837889261357
7.104751319811059,0.07184490613150783
7.10752986940817,0.028778458202537938
7.11030841900528,0.1389566618983909
7.11308696860239,-0.036548646899779894
7.1158655181995005,0.007769110380177795
7.118644067796611,0.04162559187714494
7.121422617393721,-0.0012977874268690676
7.124201166990831,-0.00042618501319058826
7.126979716587941,-0.01308422540251225
7.129758266185052,-0.05394687616986435
7.132536815782162,-0.03535513161511581
7.135315365379273,0.08435358496318576
7.138093914976383,-0.07358203920766904
7.140872464573493,-0.010397119972231014
7.1436510141706036,0.01689168444656645
7.146429563767714,0.016802875771594183
7.149208113364824,-0.010636523309389351
7.151986662961934,0.0027600331490849526
7.154765212559044,0.05915343956961616
7.157543762156155,-0.053088028502050855
7.160322311753266,-0.034700091959320445
7.163100861350376,0.040128263753206696
7.165879410947486,0.009053430870196234
7.168657960544596,0.024792112928939913
7.171436510141707,-0.0437342159263939
7.174215059738817,0.017133133650238108
7.176993609335927,-0.07855640503658956
7.179772158933037,-0.0721027879603459
7.182550708530147,0.06314007139707478
7.1853292581272585,0.07435425620894771
7.188107807724369,0.01766605856547963
7.190886357321479,-0.024041994366572318
7.193664906918589,-0.02701139762005149
7.196443456515699,0.041246111688087915
7.19922200611281,0.02528849833729337
7.20200055570992,-0.09131510165086354
7.20477910530703,0.020046421606359416
7.20755765490414,-0.06562160624249574
7.2103362045012505,0.03504765865190774
7.213114754098362,-0.0035971474789934367
7.215893303695472,-0.019350030963593143
7.218671853292582,0.051945268770821625
7.221450402889692,-0.005274036018713878
7.224228952486802,-0.0342083864762075
7.227007502083913,-0.05115361194164389
7.229786051681023,0.002559937580180442
7.232564601278133,-0.04179160653522479
7.235343150875243,0.00349513040238965
7.238121700472354,-0.049062490890210204
7.240900250069465,-0.02957422173143603
7.243678799666575,-0.056809449512062425
7.246457349263685,-0.057030488155546184
7.249235898860795,1.0846547132596198e-05
7.252014448457905,0.008385700503094626
7.254792998055016,-0.049405433286507684
7.257571547652126,-0.02450712734194017
7.260350097249236,0.0007714081615685076
7.263128646846347,-0.020511829968166227
7.265907196443457,-0.06456558373339352
7.268685746040568,-0.009640340483678065
7.271464295637678,0.018721748309528333
7.274242845234788,0.0006942582435015316
7.277021394831898,0.044100089684862356
7.2797999444290085,-0.008751956673499433
7.282578494026119,0.08951585989004342
7.285357043623229,0.12572916847082374
7.288135593220339,0.05968869465834574
7.29091414281745,-0.008446643861556663
7.29369269241456,0.04202319288801691
7.296471242011671,0.06441119074191248
7.299249791608781,0.14438015057134884
7.302028341205891,0.13295509839820904
7.304806890803001,0.027001840674859084
7.3075854404001115,0.21456733360440194
7.310363989997222,0.20724219287595036
7.313142539594332,0.31008689127575306
7.315921089191443,0.33528060692924977
7.318699638788553,0.2605260399310264
7.321478188385663,0.26749887728721855
7.324256737982774,0.2606575306654022
7.327035287579884,0.2695415821353576
7.329813837176994,0.21285322114927127
7.332592386774104,0.2690229045458853
7.3353709363712145,0.2045595042570686
7.338149485968325,0.14487186676542022
7.340928035565436,0.13313270878549233
7.343706585162546,0.11427844206203774
7.346485134759656,0.1262675759182398
7.3492636843567665,0.05117139200287444
7.352042233953877,-0.03181396347721423
7.354820783550987,0.03203936501000183
7.357599333148097,-0.045038235015170694
7.360377882745207,0.05813822747447549
7.3631564323423175,0.13879337006360642
7.365934981939428,0.13857456705641102
7.368713531536539,0.4016584941531197
7.371492081133649,0.6988473010819864
7.374270630730759,0.9582018654449037
7.3770491803278695,1.4147311905989801
7.37982772992498,1.4621589922766662
7.38260627952209,1.3520742946289799
7.3853848291192,1.1261231269919991
7.38816337871631,0.8117357645797201
7.390941928313421,0.48653345876938686
7.393720477910532,0.24938261495609676
7.396499027507642,0.14764507061002807
7.399277577104752,-0.011206681508636296
7.402056126701862,0.038394301141084344
7.4048346762989725,0.05522127886600373
7.407613225896083,-0.02573469038344867
7.410391775493193,-0.09036842711161086
7.413170325090303,0.07307046162408355
7.415948874687413,0.020848187125873382
7.4187274242845245,0.01524970116192108
7.421505973881635,0.03339027037838123
7.424284523478745,-0.020454029970846513
7.427063073075855,-0.006764187710670018
7.429841622672965,0.04802676446799351
7.4326201722700755,-0.06643765770352411
7.435398721867186,0.0009234534452633739
7.438177271464296,0.011590354317416868
7.440955821061406,-0.02137357657254865
7.443734370658516,0.04243607507027782
7.4465129202556275,-0.018987312559302392
7.449291469852738,0.008135817997258564
7.452070019449848,0.006454931506145518
7.454848569046958,-0.07869041047762779
7.457627118644068,0.00012344527496283998
7.460405668241179,0.028799204956103972
7.463184217838289,0.0026956228232187856
7.465962767435399,0.05613912368348731
7.468741317032509,0.0065252144653948005
7.47151986662962,0.04111084546619802
7.4742984162267305,0.08334504992997362
7.477076965823841,-0.03786389218960107
7.479855515420951,-0.06452703871416256
7.482634065018061,0.016548825602372527
7.485412614615171,-0.03856739027225899
7.488191164212282,0.007755512639063938
7.490969713809392,0.05180261492523846
7.493748263406502,-0.06408567783743636
7.496526813003613,-0.07085981372895156
7.499305362600723,-0.02437659268618174
7.5020839121978335,0.057536584782132014
7.504862461794944,0.051936317426689554
7.507641011392054,-0.013173482792059422
7.510419560989164,0.03554978683234545
7.513198110586274,0.04952876553411416
7.515976660183385,0.07029390539207633
7.518755209780495,0.02115631891935304
7.521533759377605,0.10102771714517488
7.524312308974716,0.11408430534631614
7.527090858571826,0.1872303173517506
7.529869408168937,0.1454553317343621
7.532647957766047,0.11637120366751556
7.535426507363157,0.2961310032109801
7.538205056960267,0.17587569949110718
7.540983606557377,0.24522664889101572
7.543762156154488,0.22933660737283224
7.546540705751598,0.2199053622614227
7.549319255348709,0.31106212199426997
7.552097804945819,0.3797920044791301
7.554876354542929,0.32557813182000733
7.55765490414004,0.3260128617830245
7.56043345373715,0.40353012770424646
7.56321200333426,0.3945246432059497
7.56599055293137,0.2617384289859278
7.5687691025284805,0.37953465173707474
7.571547652125591,0.29654722965565616
7.574326201722702,0.28190271802195865
7.577104751319812,0.2661420658088946
7.579883300916922,0.30430593430898967
7.582661850514032,0.18599374993025541
7.585440400111143,0.19822005241403173
7.588218949708253,0.13614388849231138
7.590997499305363,0.1615869592747941
7.593776048902473,0.10749546661355981
7.5965545984995835,0.01336206925546149
7.599333148096694,-0.08144903612825397
7.602111697693805,0.05571200094353376
7.604890247290915,0.08756743471800607
7.607668796888025,0.0038022678590676276
7.610447346485135,0.048633127402445346
7.613225896082246,0.01931148738472606
7.616004445679356,0.007473795907794761
7.618782995276466,0.06003839600562797
7.621561544873576,-0.016044992770482422
7.6243400944706865,-0.11685869244730482
7.627118644067798,0.04121409409176473
7.629897193664908,-0.016493593375109302
7.632675743262018,-0.05749700312230516
7.635454292859128,0.04166010072963247
7.6382328424562385,0.03191587385547613
7.641011392053349,0.05005718388377156
7.643789941650459,0.04519976466710293
7.646568491247569,0.007076477305934789
7.649347040844679,0.06790684985879313
7.6521255904417895,-0.011157932935968774
7.654904140038901,0.008395154968607462
7.657682689636011,-0.06300137192756777
7.660461239233121,0.006499923794699802
7.663239788830231,0.07732614262606226
7.6660183384273415,-0.004734747313458648
7.668796888024452,-0.0025224047324315267
7.671575437621562,0.02683113682697782
7.674353987218672,0.03303044009166755
7.677132536815782,0.014356993119807386
7.679911086412893,-0.01922639271782987
7.682689636010004,-0.02055267926109826
7.685468185607114,0.04656409994474409
7.688246735204224,0.07121342796130267
7.691025284801334,-0.018588481494190803
7.6938038343984445,0.03457874402876298
7.696582383995555,0.009369602949686019
7.699360933592665,0.044530167607457094
7.702139483189775,0.027862284002005844
7.704918032786886,0.06143263936726997
7.7076965823839965,0.04276761497025535
7.710475131981107,-0.004694195283032884
7.713253681578217,-0.004768007616532195
7.716032231175327,0.028507320431850672
7.718810780772437,-0.04769506352580073
7.7215893303695475,0.00248935447480515
7.724367879966658,0.010681407882331522
7.727146429563768,0.037352903909331076
7.729924979160878,-0.030695289287196146
7.732703528757989,0.021101008569763827
7.7354820783550995,-0.037536619386123196
7.73826062795221,0.04970459449690289
7.74103917754932,0.02827232889208814
7.74381772714643,-0.025177012170671257
7.74659627674354,-0.06503117621781125
7.749374826340651,-0.02506101861363921
7.752153375937761,-0.0402935513817349
7.754931925534871,0.029560362082040104
7.757710475131982,-0.06939804814759103
7.760489024729092,-0.10996167652511982
7.7632675743262025,-0.00850881589998664
7.766046123923313,0.04121935159152951
7.768824673520423,0.059345613327485926
7.771603223117533,-0.04378929199076016
7.774381772714643,-0.07166416615326252
7.777160322311754,0.006143163114721064
7.779938871908864,0.07191078628292534
7.782717421505975,-0.023170084305184295
7.785495971103085,0.02733956188444772
7.788274520700195,-0.029589167428712912
7.7910530702973055,0.032945329854951834
7.793831619894416,-0.046106766674259635
7.796610169491526,-0.026216097281509865
7.799388719088636,0.041850290264322604
7.802167268685746,0.009833885821617455
7.804945818282857,0.029096185420961637
7.807724367879967,-0.03207211439724932
7.810502917477078,-0.020190152567209553
7.813281467074188,-0.025013045661962413
7.816060016671298,0.028166790459604792
7.818838566268409,0.023066023160738608
7.821617115865519,0.053131926369446685
7.824395665462629,0.10584550410469835
7.827174215059739,-0.03974133299378562
7.829952764656849,-0.04777698809102711
7.83273131425396,0.0521151596007626
7.835509863851071,0.08418927497152107
7.838288413448181,-0.06322243527673264
7.841066963045291,-0.04791838395553919
7.843845512642401,-0.06833616881962046
7.846624062239512,-0.013694288207215802
7.849402611836622,-0.027497270217504283
7.852181161433732,0.008016369286664217
7.854959711030842,-0.007266237226189395
7.857738260627952,0.02145897052370411
7.8605168102250635,0.04710214019643279
7.863295359822174,-0.06820531817699517
7.866073909419284,0.04392677183634088
7.868852459016394,0.022522898374415703
7.871631008613504,-0.01951661308765927
7.874409558210615,0.04134903802903267
7.877188107807725,-0.04388955085110321
7.879966657404835,-0.04764521609401844
7.882745207001945,-0.053194283944742994
7.8855237565990555,-0.016477999133615764
7.888302306196167,-0.02125102874053637
7.891080855793277,-0.06897547956209842
7.893859405390387,0.011491728079281838
7.896637954987497,-0.0673717894898123
7.899416504584607,0.019372355781394998
7.902195054181718,0.01212252882760768
7.904973603778828,-0.0583127023171431
7.907752153375938,-0.03133338541194264
7.910530702973048,-0.01624680074650934
7.913309252570159,0.00680464731171116
7.91608780216727,-0.013129508166033161
7.91886635176438,0.007399379081650583
7.92164490136149,0.09160618806008533
7.9244234509586,-0.05932440697757975
7.9272020005557104,-0.04163737893919083
7.929980550152821,0.04684051680179016
7.932759099749931,-0.06665957529070032
7.935537649347041,0.05004830721292865
7.938316198944152,0.051611530626619176
7.941094748541262,-0.04985964171859678
7.943873298138373,-0.07272905260077377
7.946651847735483,0.041627727881237774
7.949430397332593,-0.022107999895481678
7.952208946929703,-0.031561644052748875
7.9549874965268135,-0.00789361609465465
7.957766046123924,0.037727614090214794
7.960544595721034,-0.017928656054648565
7.963323145318144,-0.04840557486544351
7.966101694915255,0.08682527473216059
7.968880244512365,-0.08563422707161344
7.971658794109476,0.030967942092019796
7.974437343706586,-0.036307065122858743
7.977215893303696,-0.043998381813569944
7.979994442900806,0.01782476666513948
7.9827729924979165,-0.04866764471981859
7.985551542095027,-0.006060322928009561
7.988330091692137,-0.05840346936277108
7.991108641289248,-0.03379793294372086
7.993887190886358,-0.05753209830196892
7.9966657404834685,0.023110779400170443
7.999444290080579,0.12461184427019817
8.002222839677689,0.0221385301871134
8.005001389274799,-0.00745321114144849
8.00777993887191,0.08937678759914294
8.01055848846902,0.014202176481838448
8.01333703806613,-0.017742924032812208
8.01611558766324,0.10793772838206095
8.01889413726035,0.01178619585167221
8.02167268685746,-0.11845754033165662
8.02445123645457,-0.021274980059948868
8.02722978605168,0.07171365192193498
8.030008335648793,0.06842781356723596
8.032786885245903,0.08106659958813384
8.035565434843013,-0.09970764967022379
8.038343984440123,0.04042457792413883
8.041122534037234,0.015087970847193644
8.043901083634344,-0.07753780033518408
8.046679633231454,-0.10220248141190709
8.049458182828564,-0.011282861050015794
8.052236732425675,0.05350578299804656
8.055015282022785,0.03760960138418382
8.057793831619895,0.06535539527203083
8.060572381217005,-0.03523739098253325
8.063350930814115,0.008855703905391242
8.066129480411226,0.07449238125927393
8.068908030008336,0.06787818463079516
8.071686579605446,-0.022698172145774326
8.074465129202556,0.023782632248125726
8.077243678799666,-0.0033198596987992915
8.080022228396777,-0.01950910123607867
8.082800777993889,-0.039477169507793716
8.085579327590999,-0.08069849407199922
8.088357877188109,0.02935888073778379
8.09113642678522,0.04064234719614147
8.09391497638233,0.03737780228244097
8.09669352597944,0.02404968745229344
8.09947207557655,0.06831404808607106
8.10225062517366,0.0538449189095678
8.10502917477077,0.2586455069936131
8.10780772436788,0.2713934099722171
8.11058627396499,0.18336075599398927
8.113364823562101,0.2526110165471889
8.116143373159211,0.27328308760096476
8.118921922756321,0.24819954793004476
8.121700472353432,0.26330405008183716
8.124479021950542,0.27259339112116676
8.127257571547652,0.2828987494233977
8.130036121144762,0.15097153921988582
8.132814670741872,0.19969845085814622
8.135593220338984,0.20396869096795686
8.138371769936095,0.20185772274258912
8.141150319533205,0.11869872876011281
8.143928869130315,0.08555810865359732
8.146707418727425,0.02136059076836347
8.149485968324536,0.031475890921692125
8.152264517921646,-0.02515433504198627
8.155043067518756,0.024425379772054043
8.157821617115866,-0.030984617789280196
8.160600166712976,-0.012302181458750623
8.163378716310087,0.12439763334115936
8.166157265907197,0.21817059870632807
8.168935815504307,0.42828200535945826
8.171714365101417,0.8323997422192091
8.174492914698527,1.1875625371339191
8.177271464295638,1.4641987091820312
8.180050013892748,1.4198176381424712
8.182828563489858,1.410802284213238
8.18560711308697,1.205541045952466
8.18838566268408,0.6479957329673769
8.19116421228119,0.4065912320273335
8.1939427618783,0.11619836083910753
8.196721311475411,0.15760229436315493
8.199499861072521,0.053129643987375436
8.202278410669631,-0.010494721233223876
8.205056960266742,-0.08157461596288929
8.207835509863852,-0.09515697297942573
8.210614059460962,0.060627007759029364
8.213392609058072,-0.024043722644607513
8.216171158655182,0.043371151580407524
8.218949708252293,0.029490687816017394
8.221728257849403,-0.04572264847563664
8.224506807446513,-0.02085783885134362
8.227285357043623,-0.021604652319293944
8.230063906640734,-0.0242160223847538
8.232842456237844,-0.055731697685338914
8.235621005834954,0.012050009883397638
8.238399555432066,0.008418429202481483
8.241178105029176,-0.049098593674945276
8.243956654626286,-0.014945623053751694
8.246735204223397,-0.011442720266793138
8.249513753820507,0.008643544850696046
8.252292303417617,-0.04394411134338576
8.255070853014727,0.05844472694710514
8.257849402611837,0.010324283343650854
8.260627952208948,0.006454979823114353
8.263406501806058,0.017979115045731575
8.266185051403168,0.001119867652991712
8.268963601000278,-0.09830936707938732
8.271742150597388,0.012484188250364632
8.274520700194499,0.04905187782029166
8.277299249791609,0.029052464244564747
8.28007779938872,-0.02506967792285887
8.28285634898583,0.019260036344714817
8.28563489858294,-0.06867848677111969
8.28841344818005,0.08579646946184546
8.291191997777162,-0.005234826585293808
8.293970547374272,0.043672992474859784
8.296749096971382,0.00434592643369412
8.299527646568492,0.08542756326277176
8.302306196165603,-0.03117853129913875
8.305084745762713,0.09201751220338755
8.307863295359823,-0.012045727944745378
8.310641844956933,0.0342092365488301
8.313420394554043,0.05098930500577453
8.316198944151154,0.10143201490381235
8.318977493748264,0.06665069022532867
8.321756043345374,0.15337699265807875
8.324534592942484,0.061996726939860775
8.327313142539595,0.09733328963633636
8.330091692136705,0.12761115162219158
8.332870241733815,0.13427698549246814
8.335648791330925,0.14839196915049402
8.338427340928035,0.29092241976783506
8.341205890525147,0.20486277188238558
8.343984440122258,0.3575263826505459
8.346762989719368,0.32907106503981365
8.349541539316478,0.2419316287794666
8.352320088913588,0.31964901322769135
8.355098638510698,0.3698228099765054
8.357877188107809,0.4123244106092419
8.360655737704919,0.33332920605834576
8.363434287302029,0.3567649020202352
8.36621283689914,0.2570617844526247
8.36899138649625,0.27745173964567393
8.37176993609336,0.3775277787001205
8.37454848569047,0.16851033786093642
8.37732703528758,0.2411557153554729
8.38010558488469,0.23218045777503873
8.3828841344818,0.22688205932036978
8.38566268407891,0.14072940813360707
8.388441233676021,0.1745737202030988
8.391219783273131,0.16921237106524056
8.393998332870243,0.04191509564564598
8.396776882467353,0.04701022298693728
8.399555432064464,0.032265755871744954
8.402333981661574,0.07579146511525875
8.405112531258684,0.030035062021168384
8.407891080855794,0.0057836459351898115
8.410669630452904,0.04135541995829889
8.413448180050015,0.019723322258464997
8.416226729647125,-0.04826658624322629
8.419005279244235,0.01714083380494234
8.421783828841345,0.07694480338058102
8.424562378438456,0.0353806316968355
8.427340928035566,0.02555945342113952
8.430119477632676,0.07770163205158874
8.432898027229786,-0.06025935164566899
8.435676576826896,-0.0010720922638200996
8.438455126424007,0.09862472863422155
8.441233676021117,-0.016219877521015915
8.444012225618227,-0.06347539773696415
8.446790775215339,0.04002192774169474
8.44956932481245,0.04881010802805894
8.45234787440956,0.026252341436694054
8.45512642400667,-0.1097767611293411
8.45790497360378,0.05501234760656093
8.46068352320089,0.0072121635986710205
8.463462072798,-0.0692510938933536
8.46624062239511,-0.050104654912454735
8.46901917199222,0.01417913366602715
8.471797721589331,0.06253718293521912
8.474576271186441,0.03644439828625785
8.477354820783551,-0.08272419627138654
8.480133370380662,0.0338110777932985
8.482911919977772,-0.08504524575650448
8.485690469574882,-0.010462405091445694
8.488469019171992,0.0024179102070453857
8.491247568769102,-0.014364726306373482
8.494026118366213,-0.038890787221855
8.496804667963325,-0.0571714411219685
8.499583217560435,0.009066882021945413
8.502361767157545,-0.0010622021100963794
8.505140316754655,0.0341430210590997
8.507918866351766,0.04780993151383417
8.510697415948876,-0.0020620532016448955
8.513475965545986,0.04951878894518553
8.516254515143096,-0.02969732934961142
8.519033064740206,-0.04077377306139305
8.521811614337317,-0.04958245547751962
8.524590163934427,0.019669222868096706
8.527368713531537,0.014057505642554848
8.530147263128647,0.010848456818471752
8.532925812725757,0.03562606696123969
8.535704362322868,-0.03222307541146518
8.538482911919978,0.06053024011496821
8.541261461517088,0.030372510899524155
8.544040011114198,0.00037452752493422064
8.546818560711309,0.008225634293417779
