0.046371
0.092277
0.007719
-0.013665
0.010823
-0.049834
0.045812
0.016429
0.034484
-0.018995
0.016488
-0.050109
0.018106
-0.039157
0.050529
0.095455
-0.012234
-0.021169
0.039263
-0.030036
-0.006336
0.004341
0.005190
-0.020970
-0.042667
0.025407
0.028861
-0.094039
-0.010755
0.039811
0.040736
0.059770
0.063468
0.058261
0.139302
0.125536
0.125454
0.180592
0.209336
0.207430
0.268420
0.167359
0.182774
0.291323
0.332681
0.243590
0.222133
0.184494
0.214064
0.157108
0.087021
0.145253
0.072972
0.014282
-0.047858
0.071529
0.003142
-0.044419
0.113553
0.111942
0.299165
0.503902
0.857914
1.174550
1.399888
1.609350
1.316091
0.996860
0.663025
0.353392
0.125194
0.116535
0.083692
-0.077981
-0.016338
-0.008690
-0.010816
-0.009920
0.023763
-0.017838
-0.035781
0.009928
-0.047082
0.110355
-0.038985
0.055309
-0.061525
0.051077
0.025825
0.047491
0.007297
-0.018499
0.022148
0.028631
-0.090898
0.003884
-0.024695
-0.014607
0.069003
-0.027808
0.041747
0.080351
-0.015318
0.065874
-0.059114
0.023351
0.088722
0.006688
0.042021
-0.007255
0.004894
-0.017408
0.004899
-0.030117
0.030996
0.100477
0.092657
0.171120
0.079671
0.189078
0.127417
0.275844
0.232567
0.227632
0.257153
0.221369
0.272491
0.251115
0.293006
0.314337
0.354713
0.343195
0.342140
0.251282
0.331327
0.249897
0.259611
0.160228
0.198697
0.194020
0.122581
0.170778
0.063076
0.135874
0.107488
0.073847
-0.003534
-0.017162
0.022850
0.008127
0.014467
0.016124
0.072315
-0.002934
-0.038874
0.052359
-0.011593
0.068360
0.026649
-0.013692
-0.054723
0.070843
0.014834
0.008670
-0.020248
0.030399
0.053807
0.017214
0.032572
-0.015735
0.057708
-0.026558
0.041049
0.037841
-0.071600
-0.010044
0.024593
-0.118271
0.026038
0.052299
0.052510
-0.078439
0.027604
0.062581
0.019744
0.006178
-0.042325
0.132480
0.080692
-0.026677
0.058343
0.002594
-0.050805
-0.001887
0.053708
0.105930
-0.104255
-0.035720
0.012564
0.044558
-0.006983
0.000565
-0.013492
0.054105
-0.066302
0.017311
0.062665
-0.005548
-0.008339
-0.016721
-0.043622
0.051268
0.050481
0.036381
0.009560
-0.003870
0.066877
0.041586
-0.091749
-0.010700
0.000784
0.068051
0.010394
-0.015523
0.058988
0.043763
-0.033611
-0.013231
-0.087595
0.020462
-0.039001
0.010424
-0.092947
-0.010135
0.050884
0.077714
0.034399
0.005655
-0.097483
-0.067633
0.035521
0.044492
0.012753
-0.004791
-0.014117
0.094569
-0.010523
0.070095
-0.006372
-0.040834
0.100525
0.108845
-0.014840
0.072696
0.036277
0.017374
-0.006016
0.001090
0.012622
-0.042931
0.115968
0.029696
0.051187
-0.045219
-0.065946
0.007380
-0.009979
-0.010502
0.042789
-0.021704
-0.025692
0.042032
-0.040486
0.089227
-0.009117
-0.010341
-0.065159
-0.035779
0.025015
0.003455
-0.026808
0.022297
0.073496
0.005558
-0.040548
0.047297
-0.092679
-0.032049
0.005435
-0.015579
0.000046
0.064391
0.019199
0.020840
-0.095834
0.016814
-0.014060
-0.071118
0.039483
0.119222
-0.031792
0.012657
0.041760
-0.048227
-0.029939
-0.020890
-0.117215
0.005830
0.006887
0.040914
-0.158049
0.017492
-0.051215
0.075361
0.005837
0.010551
-0.051979
0.022094
0.039020
-0.032071
0.051781
0.040896
0.079814
0.048603
0.200267
0.176604
0.147850
0.233163
0.252894
0.164516
0.225346
0.286351
0.221047
0.201616
0.261737
0.204602
0.157311
0.084320
0.108604
0.041678
0.122534
0.086229
0.086937
0.046861
0.027977
0.013121
0.077334
0.105119
0.248705
0.474251
0.814801
1.177351
1.467208
1.419544
1.252642
0.983352
0.676753
0.333767
0.159642
0.002974
0.006809
0.109376
-0.067651
-0.025255
-0.052283
0.018364
0.018624
0.063269
0.022153
0.000317
0.059104
0.015967
-0.024097
0.052442
-0.015260
-0.038812
-0.074112
-0.001361
0.034606
-0.030103
0.076918
-0.009565
0.017384
0.053455
-0.005024
-0.063191
0.041890
-0.085061
-0.012752
-0.007229
-0.002744
0.081575
0.020536
0.074154
-0.032672
-0.065494
-0.101602
0.018173
0.028690
0.103234
0.052847
0.077827
-0.000756
0.070831
0.070015
0.145151
0.154798
0.157883
0.140920
0.201609
0.171963
0.202206
0.232282
0.362693
0.331246
0.406917
0.317905
0.390663
0.336934
0.350278
0.374761
0.389032
0.233351
0.188745
0.324882
0.161701
0.184602
0.179086
0.148879
0.168503
0.095521
0.077902
0.014988
-0.015225
0.025430
0.044728
0.007224
-0.037605
0.008931
0.094525
-0.008602
-0.051614
-0.063648
-0.049274
0.057921
-0.003397
-0.074075
0.069466
0.001914
0.113645
-0.002275
0.019245
-0.010533
0.072967
0.028436
-0.019539
-0.067594
-0.020125
-0.000642
0.013583
-0.023080
-0.020377
-0.023804
0.001756
0.022737
0.052426
0.039467
-0.003963
-0.035463
-0.002271
0.020028
-0.007401
0.032759
-0.015203
0.071759
-0.026960
0.075848
-0.058431
0.016567
0.034590
0.006787
-0.056355
0.005574
-0.004710
0.021381
-0.057547
0.010812
0.001636
-0.044018
-0.057460
0.077404
0.035167
0.070730
-0.023088
-0.064864
0.137956
0.002855
-0.045394
-0.037033
0.009378
-0.039164
0.029821
-0.101533
0.094131
-0.057337
-0.005706
-0.073984
-0.006460
0.011789
-0.073988
0.004308
0.096587
-0.031567
0.066538
-0.067039
-0.004437
0.032601
-0.027701
-0.045932
-0.059904
0.000551
0.058769
-0.026067
-0.005101
0.043436
-0.067517
-0.031185
0.038356
0.061024
-0.018677
0.039106
-0.037468
0.006161
0.057447
0.081353
-0.017119
0.015914
0.029325
-0.097045
0.116338
0.040997
-0.047732
0.028267
-0.023713
-0.040540
-0.110170
-0.007918
0.038196
0.030516
-0.074246
0.014797
0.062262
-0.021452
0.028839
-0.023532
-0.063570
0.007428
0.024610
-0.040635
0.014600
0.045158
-0.028628
0.017101
-0.069971
-0.005984
0.024462
-0.096492
-0.055921
-0.045818
-0.048053
0.050299
0.004169
-0.054822
-0.027229
-0.012351
0.040483
0.003697
0.033771
0.007130
-0.004405
0.103439
0.099994
0.092325
-0.042902
-0.007388
0.003748
-0.025591
-0.078093
0.028879
-0.041260
-0.079583
-0.080069
-0.054262
-0.073894
-0.008238
-0.042747
0.002236
0.083025
-0.031654
0.038264
0.039722
-0.005852
0.050504
-0.058386
0.139540
0.027916
-0.041271
0.034948
0.025615
-0.028440
0.031988
0.146088
0.075654
0.126274
0.264429
0.075780
0.251167
0.177334
0.188200
0.253417
0.217789
0.254484
0.193528
0.208079
0.057852
0.143528
0.104270
0.117430
0.191719
0.012425
0.110964
0.019057
0.002943
0.082574
-0.002261
0.234278
0.231434
0.573490
0.870371
1.225121
1.427161
1.455454
1.322506
0.979377
0.605125
0.293634
0.179372
-0.080425
-0.016846
-0.039358
-0.006413
0.008009
0.034038
-0.073795
-0.034172
0.022427
-0.090493
0.044485
-0.042030
-0.019523
-0.033175
0.077990
-0.146546
-0.002237
-0.002992
0.034385
-0.032354
0.070390
-0.083479
-0.008245
0.060008
-0.060931
-0.055383
-0.029804
-0.009567
-0.056582
-0.063885
-0.066637
0.007045
-0.006339
-0.011715
0.025828
-0.046524
0.158952
-0.006992
0.054504
0.021781
0.039827
0.054453
0.013845
0.025993
0.036650
0.056812
0.093742
0.107918
0.195598
0.111610
0.233934
0.248475
0.231246
0.322254
0.377886
0.325389
0.211549
0.271742
0.324456
0.356409
0.281630
0.402088
0.336577
0.225473
0.328811
0.243135
0.247211
0.268302
0.051628
0.158435
0.153622
0.079288
0.085619
0.146516
0.080881
0.008053
0.020056
0.035335
0.093154
0.043685
0.078983
0.089087
-0.092605
-0.168345
0.059672
0.005774
-0.043797
0.003437
0.100516
-0.027751
-0.054946
-0.015987
0.013098
-0.070164
0.007172
0.115335
0.023079
0.032769
0.036710
-0.017065
-0.082856
0.003829
-0.080625
-0.010125
0.032745
0.082603
-0.068938
0.037214
0.054864
0.009076
0.074294
0.035647
-0.009474
0.005517
0.044283
-0.072988
0.034471
-0.064432
0.027413
0.055953
-0.005423
-0.063283
-0.098388
-0.035784
-0.030302
0.036226
0.067697
-0.020072
0.043061
-0.044423
0.036616
0.032849
0.012246
0.001449
-0.063332
-0.032630
0.083197
-0.030940
-0.032286
-0.000699
0.031013
-0.006784
-0.061494
0.097616
-0.035405
0.022657
0.001750
0.010636
0.043591
-0.000951
-0.025201
0.088945
0.050383
0.091218
0.051546
0.072819
0.044646
-0.078104
-0.029751
-0.052320
0.021753
-0.029435
-0.024251
0.084562
-0.087791
-0.062761
-0.024612
-0.024182
-0.063077
0.014311
-0.039939
0.048529
0.047499
0.068499
-0.111864
0.052518
0.042677
0.029813
0.001383
0.052443
0.008605
0.040999
-0.017877
-0.003296
-0.054626
0.040597
0.012144
-0.055894
0.021963
0.000225
0.031371
-0.020101
-0.006148
-0.017945
-0.006127
-0.056190
-0.028124
-0.063734
0.031735
-0.061363
-0.019766
0.017550
-0.058019
-0.026374
-0.039623
0.003855
-0.062884
-0.064341
-0.013323
0.005396
0.004845
-0.055816
-0.091327
-0.077760
0.040675
-0.052856
-0.074074
-0.020393
0.024156
0.057415
-0.006825
-0.012681
-0.004166
-0.034066
0.027070
-0.022170
-0.000416
-0.001650
0.105042
-0.041859
-0.091382
0.012636
0.095723
0.074664
-0.032438
0.011004
0.103137
-0.071691
-0.075945
-0.035474
-0.023265
0.083983
-0.017236
0.044458
0.074433
-0.007587
0.007911
-0.029472
0.002874
0.070698
0.127811
0.017412
0.149139
0.122796
0.105544
0.254353
0.254813
0.154652
0.299363
0.253106
0.265274
0.203344
0.282649
0.263803
0.227874
0.172530
0.203945
0.214325
0.098698
0.065297
0.042041
-0.002784
0.019629
-0.022421
0.000409
0.120906
0.168996
0.291859
0.529414
0.973080
1.269480
1.545139
1.501810
1.326440
0.828018
0.608386
0.220272
0.216163
0.086594
0.039665
-0.026385
-0.024073
-0.014603
-0.049001
-0.046524
0.011810
-0.048856
0.046750
-0.033148
0.010942
-0.021429
0.021588
0.016013
0.077594
0.034512
0.055463
-0.066906
-0.042221
-0.024421
-0.051136
0.070663
-0.017980
0.007946
-0.014270
-0.019032
0.018040
0.083320
-0.001772
-0.121812
0.014591
0.037622
-0.048644
-0.056577
0.039851
0.029437
-0.018745
-0.001918
0.069530
0.020014
-0.042824
0.136651
0.018317
0.064103
0.208286
0.180640
0.137232
0.099976
0.221227
0.176017
0.221613
0.210434
0.246779
0.270695
0.266095
0.251551
0.346586
0.268579
0.373577
0.300286
0.360271
0.259454
0.294960
0.343905
0.269659
0.229737
0.107887
0.186839
0.171319
0.113487
0.065646
0.092855
0.078611
0.092313
0.080787
0.082148
-0.036510
0.022586
0.109356
0.001843
0.025740
0.027974
0.032781
0.013154
-0.043539
-0.126307
0.029319
-0.048025
0.116409
-0.039158
-0.084771
-0.063174
-0.083671
-0.015918
0.031263
-0.009898
-0.033689
-0.024368
-0.110353
-0.094257
0.050133
-0.050025
-0.162425
-0.011188
-0.046313
0.018933
-0.067545
-0.015566
-0.024976
-0.091444
-0.014880
0.014720
-0.004379
0.045757
0.059366
0.004200
-0.059143
-0.053093
-0.055360
0.044336
0.062885
0.015468
0.004529
-0.092718
0.008794
0.015955
0.012607
0.028636
-0.043099
-0.027603
-0.080140
0.064568
0.040368
0.022974
-0.045255
-0.065225
-0.021650
-0.035807
-0.032606
0.041078
-0.055752
0.034075
0.021187
-0.078552
0.067353
0.088408
0.095026
-0.041370
0.008218
0.023549
0.036647
0.000285
0.056547
-0.070170
-0.103665
-0.048550
-0.031609
0.002677
0.046582
0.040306
-0.009616
0.012148
0.015593
-0.059852
0.003687
-0.070302
-0.012186
0.095467
0.069965
0.031957
-0.032740
-0.096746
-0.059592
0.045091
-0.003604
-0.021019
-0.010269
0.034899
0.009686
-0.028361
0.071895
-0.060217
0.094564
-0.007888
0.035023
0.021311
0.025909
0.031700
0.032298
-0.007302
0.030265
0.027698
-0.020550
0.010461
0.050740
-0.070196
0.007518
0.046615
-0.067332
0.002648
0.012946
0.076534
-0.048980
-0.026780
-0.039031
0.059344
0.010384
0.017308
-0.032232
-0.002188
-0.066407
0.021174
-0.020958
0.083746
-0.020646
-0.010294
0.035740
0.025063
0.013482
0.017810
0.014922
0.024700
0.017240
0.028290
-0.061743
0.108468
-0.029767
-0.009363
0.030163
-0.056349
-0.064126
0.006811
-0.012770
0.005986
0.037231
0.024204
0.065638
-0.097140
0.018145
0.012905
0.013442
-0.000093
-0.035235
-0.022295
0.003124
0.006392
-0.018802
0.035303
0.040233
0.028028
0.069537
0.106666
0.075704
0.170331
0.183046
0.121277
0.150375
0.258317
0.309521
0.305117
0.317853
0.303239
0.202635
0.239741
0.166834
0.060494
0.058560
0.085535
0.017344
0.034687
0.030089
0.029782
0.021150
0.071394
0.145100
0.207455
0.243314
0.612187
0.940462
1.252586
1.516761
1.480463
1.264935
0.881325
0.541547
0.299911
0.133849
0.053254
-0.010830
0.057350
0.065609
-0.090745
0.007019
-0.022192
-0.072772
-0.013688
0.002396
0.061716
0.068555
0.097408
0.025790
-0.060116
-0.013690
-0.025096
-0.065866
0.064927
0.011864
0.013289
-0.060750
0.057268
0.018394
-0.067367
-0.011883
0.033796
0.051986
0.074570
-0.028706
-0.071901
-0.094424
0.009416
-0.001874
0.060909
0.079756
-0.013861
0.046555
0.062742
0.074842
0.055879
0.023056
-0.060416
0.075965
0.008413
0.062395
-0.010383
0.139049
0.220504
0.130353
0.332618
0.291117
0.343940
0.255109
0.308622
0.254330
0.342472
0.402515
0.360684
0.315251
0.322850
0.390528
0.301327
0.298703
0.299702
0.244536
0.239818
0.194748
0.106318
0.179266
0.087947
0.024379
0.121560
0.007030
0.031511
0.137440
0.079634
0.192547
0.022451
-0.000628
0.022392
0.029036
-0.091389
-0.009496
0.049282
-0.013191
0.005680
-0.040353
0.000434
0.067234
-0.007332
-0.036549
-0.087476
0.023703
-0.086498
0.031294
0.016904
0.002390
0.064390
-0.048565
-0.038962
0.010704
-0.097067
-0.020228
0.003207
0.003302
-0.001216
-0.124783
0.108146
0.075491
0.083376
0.047608
0.015364
0.074164
-0.034352
-0.010016
-0.030661
0.059311
0.081856
0.005549
0.053960
0.077062
0.056768
-0.038221
0.014574
0.022865
0.054603
-0.012963
0.065960
-0.035299
0.004374
-0.136046
-0.027456
-0.019762
-0.005080
-0.053320
0.021456
-0.017518
-0.035365
0.038767
0.000534
0.049131
0.036675
0.006697
0.004705
-0.068453
0.023963
0.013566
0.082014
0.043318
0.013110
0.003223
0.091274
-0.026202
0.034113
0.057345
0.000346
-0.076556
-0.056168
0.062371
0.018948
0.064320
0.002122
0.031276
0.094799
0.032670
-0.034458
-0.035412
-0.015142
0.007675
-0.010191
0.000386
0.036972
0.010484
-0.010155
0.039044
-0.051346
-0.022952
0.013872
-0.055756
-0.000405
0.153775
0.060844
-0.015371
0.067033
-0.038646
-0.065820
0.046275
-0.042201
-0.026543
-0.064904
-0.045952
0.013829
0.053749
0.003908
-0.029872
-0.003863
0.021634
-0.013152
0.056399
0.046956
-0.055606
-0.018924
0.010529
0.099991
0.028690
0.060733
-0.017054
0.020435
0.042740
0.033524
-0.004640
0.028355
-0.004492
-0.023268
-0.002889
-0.020994
0.106468
-0.038985
-0.011672
-0.077592
0.036793
0.068046
0.003706
-0.023161
0.052049
0.055501
0.103480
0.039414
-0.034209
0.029440
0.031209
-0.034723
-0.022743
0.042546
0.023323
-0.055636
-0.000030
0.022840
-0.039651
0.137963
0.030417
-0.001969
0.002525
0.041278
0.049000
-0.053437
-0.063300
-0.020266
0.022125
0.013253
0.027457
0.012456
0.169604
0.209706
0.167653
0.251072
0.233872
0.259851
0.268813
0.228376
0.203510
0.343324
0.155030
0.231184
0.167158
0.175296
0.134204
0.073957
0.085970
0.069501
0.016239
0.062860
-0.076137
0.017962
0.060291
0.211922
0.329531
0.579715
1.005903
1.200513
1.456085
1.417735
1.242105
0.931794
0.620342
0.240718
0.132892
0.086204
0.044958
0.081367
0.059084
0.040155
-0.004095
-0.010145
0.059210
0.018864
0.061560
0.069896
-0.070676
-0.002787
0.125067
0.031800
0.035783
0.043016
0.031343
-0.119656
-0.116699
0.001045
-0.043283
-0.011652
0.048403
-0.039265
-0.015767
0.034415
0.010471
0.028947
0.029099
-0.037209
0.027498
-0.006661
-0.010381
-0.065371
-0.060224
-0.071736
0.011305
0.067505
0.151677
0.125884
0.036751
0.051992
0.058265
0.176083
0.112624
0.135435
0.122906
0.122690
0.323977
0.162086
0.267513
0.274348
0.312079
0.236261
0.453355
0.313243
0.326976
0.359288
0.263531
0.369841
0.287507
0.349322
0.337071
0.353061
0.206627
0.255788
0.137763
0.156363
0.183459
0.120612
0.108091
0.083853
0.023982
0.084086
0.000558
0.018047
0.013720
-0.001731
-0.031085
0.092103
-0.015391
0.063344
0.086410
-0.009487
0.026068
-0.004143
-0.005616
0.100283
-0.036154
0.095734
-0.101279
-0.008203
-0.001283
-0.021644
0.075813
-0.099501
0.005864
-0.113051
-0.078542
0.031405
0.048885
0.078182
0.006916
0.039632
-0.052178
-0.002507
0.049271
-0.093658
-0.011560
-0.065105
0.059595
0.061928
-0.050491
-0.074395
-0.035461
0.009023
-0.021647
0.026888
-0.018877
0.048319
0.039098
-0.032400
-0.058847
-0.015514
0.034499
0.006963
0.047657
-0.006516
0.118888
0.027544
0.053203
0.013369
0.011131
-0.034048
-0.066590
-0.087457
-0.004004
0.031787
0.028065
0.017927
-0.014507
-0.013407
0.072120
-0.001949
-0.005560
0.073554
-0.010756
0.036104
-0.031164
0.024753
-0.049995
-0.117824
-0.044546
0.069723
0.000037
-0.019260
0.034509
-0.061975
-0.047928
0.020448
0.014979
0.018160
0.036944
-0.026125
-0.045987
0.095559
0.069895
-0.035280
0.031484
-0.002483
-0.027209
-0.012529
0.014226
0.058649
0.020352
-0.004503
-0.092775
-0.065090
-0.073914
-0.042066
-0.032359
-0.014662
0.014808
-0.038815
-0.040539
-0.048203
-0.097261
-0.004902
-0.081580
0.087356
-0.088774
-0.040397
0.056275
0.007047
0.009302
-0.013014
-0.023450
-0.091098
0.009381
0.050262
-0.018306
0.034435
0.024185
-0.015923
0.009925
-0.003762
-0.040249
-0.023497
-0.015286
-0.098716
0.031145
0.032872
-0.025280
0.026257
0.005203
0.120938
-0.048707
0.003112
0.050196
0.024378
0.027170
0.035490
-0.015784
0.053822
0.007611
0.003951
-0.007563
-0.025837
0.053823
0.025571
0.011202
0.036147
-0.050371
0.081287
0.012468
-0.001190
0.044659
-0.018372
0.021798
-0.004117
0.022829
-0.020703
-0.022560
0.034295
-0.102335
-0.011021
0.014478
0.027941
0.121460
0.089803
0.031369
0.141855
0.113784
0.062056
0.031455
0.205962
0.241656
0.269541
0.218264
0.212890
0.172729
0.271060
0.287354
0.220405
0.218548
0.128155
-0.025126
0.159247
0.115290
0.010807
0.078853
-0.019022
0.039020
0.030502
0.108293
0.192372
0.282167
0.689240
1.026772
1.329908
1.494706
1.371727
1.200580
0.877061
0.531103
0.239838
-0.021340
0.047133
0.078727
-0.018740
-0.046038
-0.057847
-0.018416
0.000598
0.002349
0.029204
0.065399
-0.094596
-0.045309
-0.068841
0.026858
0.018983
-0.067020
-0.068851
-0.021715
0.040297
0.080073
0.051150
0.021578
-0.068817
-0.022404
-0.050894
-0.050039
0.035064
-0.036166
-0.036852
-0.044507
-0.032068
0.069978
0.002290
0.015565
0.008445
-0.012016
0.032249
0.053060
0.131656
-0.019732
-0.001245
0.032869
0.043493
0.036733
0.080427
0.145811
0.096827
0.064019
0.168288
0.191379
0.138091
0.237302
0.269150
0.218671
0.323973
0.284515
0.297083
0.399545
0.377022
0.335470
0.324237
0.406410
0.270057
0.249947
0.281778
0.311900
0.143398
0.190522
0.245934
0.142010
0.092047
0.084194
0.002107
0.120962
0.057313
0.025106
-0.000701
0.029314
0.000027
-0.019403
0.003113
0.033435
-0.028142
0.002622
-0.018165
0.011409
-0.049914
0.060929
-0.122858
0.040111
-0.022921
-0.072120
0.094484
0.002250
0.069558
-0.004638
0.032948
-0.033701
0.038504
-0.069923
0.094259
-0.023047
-0.023047
-0.124912
0.011429
0.026112
-0.010844
-0.038219
0.066667
-0.060234
0.002137
-0.030732
0.007701
0.004254
-0.019250
-0.054998
0.068115
0.055347
-0.013961
-0.024754
0.129219
-0.004372
-0.026234
0.041142
-0.003422
0.072885
-0.001202
-0.010420
0.038146
0.018232
-0.028152
0.022613
0.122633
0.037866
0.046471
-0.003621
0.026048
0.001700
0.017474
-0.056620
-0.146390
-0.113519
0.006396
0.002218
0.043482
0.045019
-0.033658
-0.010381
0.062124
0.104759
-0.008959
0.030425
0.044599
-0.052055
-0.016947
0.001161
0.044759
0.004096
-0.042052
0.007151
0.082007
-0.041986
0.005233
-0.030860
-0.071770
-0.116431
-0.125344
0.034163
0.078449
0.060446
0.021965
0.028507
-0.025587
-0.036395
-0.068386
-0.038719
-0.009110
-0.016641
0.006147
-0.043534
0.060695
0.065816
-0.091776
-0.001922
-0.128569
0.056884
0.032796
0.033943
0.074825
0.086333
-0.012674
-0.005474
-0.039539
0.032300
-0.003940
0.021201
-0.050981
-0.025602
0.006561
0.070255
-0.061037
-0.021130
-0.072612
0.046276
-0.030147
-0.043174
0.024163
0.003896
0.052946
0.039338
0.007495
0.033414
0.069965
-0.053306
0.001313
0.026929
-0.120937
0.101934
-0.096202
-0.061519
-0.023640
0.023989
-0.013913
-0.003082
-0.012319
-0.020347
-0.024656
-0.023710
-0.028847
-0.052902
0.025205
0.047949
-0.005780
-0.000801
-0.095021
-0.080098
-0.074916
0.033375
0.050624
-0.003852
-0.021497
0.100199
0.112125
0.060670
0.044734
0.039856
0.082039
-0.030923
0.059941
0.081905
0.058564
0.028620
0.106727
0.110637
0.152926
0.264768
0.214865
0.298533
0.244662
0.235732
0.348639
0.251757
0.259312
0.239683
0.208356
0.161053
0.137001
0.006902
0.065338
0.045254
-0.022529
0.021003
0.134235
-0.014459
0.074684
0.068178
0.189615
0.430405
0.657320
1.027980
1.321201
1.457965
1.358382
1.125176
0.886663
0.415857
0.258522
0.112053
0.059895
-0.011922
0.000893
0.090278
0.051330
-0.057409
-0.054229
0.027083
-0.058706
-0.016527
0.005771
0.002652
-0.039900
-0.009454
-0.000536
-0.061456
0.045289
-0.098718
0.022596
0.035658
-0.020654
-0.060735
0.051051
0.004719
-0.042032
0.005889
-0.083638
0.068521
-0.011259
0.022092
0.041698
-0.048279
-0.019623
-0.125684
0.021154
-0.036618
-0.042373
0.025678
-0.124167
0.026826
-0.062581
0.026756
0.011571
0.041496
0.172073
-0.036742
0.209954
0.194326
0.210865
0.249646
0.281222
0.229263
0.249748
0.285850
0.352390
0.286192
0.406488
0.462232
0.333584
0.332498
0.277815
0.323388
0.302871
0.359750
0.199818
0.302904
0.243696
0.166947
0.176329
0.133249
0.066268
0.007258
0.029535
0.015966
0.032455
0.022053
0.019174
-0.071418
-0.088039
0.018152
0.016937
-0.062588
-0.010386
-0.038992
-0.036825
-0.032501
-0.039920
-0.025703
0.009327
0.043629
0.011402
0.018672
-0.076943
-0.044786
-0.026149
-0.035135
-0.015922
0.030257
-0.020302
-0.098144
0.028844
0.093614
0.014532
-0.079715
-0.047150
0.024411
-0.096499
-0.027541
-0.013325
0.001386
0.093275
0.049634
0.005736
-0.034712
-0.048194
-0.061671
0.060576
-0.017810
0.003250
0.061702
0.038335
-0.053301
0.028398
-0.037534
0.005532
-0.104224
-0.014364
0.069635
0.038656
-0.064619
-0.050179
-0.031396
0.007734
-0.042287
-0.043706
0.015242
0.107289
-0.061810
-0.006538
-0.045677
-0.060074
0.012389
0.031396
0.039196
0.050852
0.015727
0.068434
-0.025422
0.028607
0.009776
0.018279
-0.070468
-0.047070
0.041767
0.034867
0.021390
0.043781
0.053682
0.083288
-0.031884
0.123368
0.075134
0.007929
0.028183
-0.029521
-0.045349
0.007947
0.005058
-0.046643
0.062544
-0.063850
0.093095
-0.023673
-0.054186
-0.014899
-0.006252
0.077147
0.030012
0.026486
-0.016919
0.029234
0.004968
0.029385
0.016913
-0.048991
0.101664
0.028585
-0.017871
-0.094190
-0.058912
0.028350
0.025456
0.030727
0.102712
0.079254
-0.057031
-0.003018
0.000093
-0.138893
0.046960
0.061550
0.038866
0.020972
0.039093
0.027523
0.036411
-0.037585
0.013785
-0.002379
0.059871
0.017799
-0.016434
-0.029806
-0.057567
0.038289
-0.026482
0.070954
0.042807
0.011439
0.012218
0.018928
0.005673
-0.047548
0.072431
-0.050484
-0.055103
0.021810
-0.139233
0.058873
-0.030899
0.010695
0.081959
0.040701
-0.076058
0.008395
0.034243
-0.012114
-0.006851
0.027509
-0.028552
0.069510
-0.007437
0.025382
0.076237
0.053592
0.011375
0.122172
-0.058065
0.074171
-0.073417
0.008653
0.121285
0.069790
0.163470
0.176007
0.222938
0.165067
0.248346
0.221093
0.163088
0.256989
0.188934
0.258065
0.296604
0.194447
0.137882
0.061637
0.014623
0.064003
0.173769
0.156940
0.067006
0.061069
0.019884
0.018958
0.037446
0.279155
0.388549
0.605042
0.992228
1.475756
1.496113
1.510058
1.168424
0.769440
0.487881
0.224645
0.115222
0.176950
-0.002109
-0.034276
0.064372
-0.038516
-0.000199
-0.059866
-0.046936
0.023516
-0.011169
-0.062463
-0.007215
0.082611
-0.005230
0.061470
-0.026358
-0.034821
-0.003785
-0.073260
0.045781
0.061921
-0.001447
0.000512
0.030045
-0.019361
-0.032468
0.013894
-0.002975
0.047608
0.074489
-0.036575
-0.040392
0.055159
0.019284
0.029736
0.004528
0.076549
-0.037037
0.085085
-0.032921
0.076970
0.009049
-0.046228
0.099393
0.033456
0.052825
0.095068
0.143298
0.157145
0.221766
0.226281
0.197988
0.286288
0.281885
0.298558
0.340119
0.363188
0.360174
0.349066
0.391401
0.283090
0.355336
0.338960
0.242636
0.252543
0.233205
0.255207
0.182015
0.141386
0.142874
0.134296
0.098389
0.105075
0.003585
0.139624
0.013726
0.038994
0.010824
0.006300
0.030411
-0.035622
0.136421
-0.074138
0.096948
-0.062085
0.017768
0.071270
0.140648
-0.045934
0.016580
0.025052
0.059770
0.001933
-0.016537
-0.048497
0.005476
0.035560
0.007502
-0.049808
-0.023942
-0.111700
0.070346
0.021944
0.063389
0.049546
-0.020998
0.015337
-0.039212
-0.046949
0.064247
0.018903
-0.038260
-0.048994
-0.083844
0.013805
-0.030246
-0.092752
-0.030271
0.027061
0.024104
0.033330
-0.008636
-0.022128
0.018124
0.073060
-0.063413
0.071464
0.050660
-0.092845
-0.016753
-0.055562
0.061210
0.112861
0.011738
-0.053127
0.032894
-0.048431
-0.004844
-0.001392
0.106733
-0.013950
0.006376
0.013561
0.019368
-0.014866
0.018728
0.003684
0.020367
-0.014886
-0.027991
0.056729
0.049829
0.004771
0.031116
-0.019401
0.061354
0.088714
-0.102930
-0.045322
0.092963
-0.052431
0.075617
0.011843
-0.011807
0.006777
0.023948
0.075141
0.082042
-0.011369
-0.059116
-0.067267
0.001882
-0.090320
0.079943
0.097216
-0.023999
0.052189
0.007264
0.014038
-0.044764
0.057776
0.023758
-0.009329
0.015897
0.010127
-0.045544
-0.065316
-0.078069
-0.003251
0.044409
0.037249
-0.059220
-0.017595
-0.020194
0.028482
0.012080
-0.059976
0.019832
-0.055847
-0.050169
-0.000415
0.002854
0.038649
0.068370
0.092206
0.008780
0.053852
-0.031639
0.044495
-0.068590
0.021542
0.052875
0.006424
0.031470
0.007295
0.002062
0.064090
0.068592
0.011382
0.079936
0.023856
0.023793
0.021359
0.011481
0.061754
0.056931
-0.031608
0.072779
0.003818
-0.055911
0.033441
-0.021865
-0.012060
-0.055785
0.069458
-0.041593
0.079711
0.014042
-0.014061
0.026172
0.026831
0.045087
0.092242
0.045641
-0.068288
0.007464
0.027486
-0.006266
0.043258
0.046943
0.089425
0.026656
0.081748
0.055033
0.225551
0.213667
0.281606
0.211481
0.203218
0.280215
0.289891
0.233499
0.210629
0.178122
0.269282
0.091756
0.059209
0.157168
0.082025
0.098321
0.053299
0.042074
0.110280
-0.024057
0.056989
0.198080
0.185300
0.433896
0.658758
1.053869
1.322579
1.501984
1.368589
1.080894
0.734073
0.389208
0.236242
0.098129
0.017408
0.029480
0.037237
-0.110110
0.089547
0.002409
0.065276
0.011674
0.053180
-0.083500
0.060836
0.024903
0.041487
-0.027293
0.019320
-0.023946
0.056068
-0.025602
0.004277
0.054101
0.051324
-0.040889
-0.004686
-0.013057
-0.010921
-0.033969
0.017925
-0.042543
0.011851
0.045976
-0.029230
-0.112658
-0.030913
0.033763
0.010256
0.033833
-0.099292
0.010886
0.004030
-0.059195
0.013733
0.052279
-0.010457
0.040512
0.090191
0.056302
0.164279
0.179049
0.192700
0.134885
0.158525
0.224870
0.260978
0.281259
0.320328
0.340049
0.354844
0.322543
0.232867
0.407201
0.383262
0.380781
0.283756
0.286493
0.171098
0.185478
0.188449
0.158053
0.186926
0.076439
0.169312
0.044045
0.072184
0.007794
0.035802
0.069902
0.039000
0.046458
0.006198
-0.022422
0.046408
0.078499
-0.000275
0.029190
0.036505
-0.024673
-0.073110
-0.043768
-0.112376
-0.027543
0.070784
0.057951
-0.102689
0.062230
0.016968
0.029606
-0.033768
0.041222
0.011351
0.026816
0.018617
-0.021785
0.027681
0.020450
0.015110
0.081505
0.037037
0.017078
-0.031273
-0.130352
-0.046082
0.074413
0.023850
0.002149
-0.031317
0.020072
-0.043715
0.037323
0.040967
0.002135
-0.060380
-0.037168
0.040666
-0.000460
0.089873
0.150052
0.023034
0.024770
-0.018014
-0.041542
0.082241
0.013276
-0.061559
-0.021682
0.016973
-0.030529
-0.066522
-0.010865
0.019244
-0.013825
0.015713
-0.028505
0.046587
-0.016635
-0.012988
0.078616
0.000688
0.022400
0.022439
-0.055987
0.022469
0.026044
0.032440
-0.009351
-0.029150
-0.007353
0.005156
-0.040127
0.002350
0.056623
-0.066443
0.007192
0.024147
0.054383
0.007250
0.006844
0.046352
-0.000454
0.031979
0.052509
0.038318
-0.031823
-0.027819
0.038408
-0.005451
-0.021589
0.054154
0.080741
-0.067449
-0.021340
-0.063524
-0.041295
-0.041783
0.017846
-0.006703
0.178460
0.007762
0.000781
0.027628
0.016627
-0.016710
-0.029870
-0.116404
0.045419
-0.020146
-0.038636
0.053880
0.063632
0.002801
-0.033446
-0.005854
-0.055510
-0.076477
0.012389
-0.035382
0.029434
-0.075333
0.063958
0.006932
0.019887
0.025909
-0.051656
0.015763
-0.055758
0.018016
0.024889
0.007493
-0.023593
0.096827
-0.066835
0.035702
0.030339
0.030264
-0.022159
0.072310
0.004313
-0.021393
-0.014317
-0.070831
-0.035645
-0.009894
-0.029622
-0.021252
0.013910
-0.053418
0.041118
-0.080369
0.036420
-0.009346
0.002749
-0.011967
0.003477
0.067223
-0.052463
0.034266
-0.056718
0.026825
0.147239
0.064222
-0.010336
0.025297
0.155241
0.078624
0.039924
0.120283
0.110322
0.138851
0.339383
0.306591
0.262737
0.243401
0.248240
0.170516
0.226792
0.229795
0.113842
0.067557
0.050104
-0.055089
0.098494
0.003035
0.033031
-0.015465
-0.016397
0.153046
0.188246
0.274380
0.412725
0.759732
1.141357
1.397247
1.469923
1.388126
1.138086
0.776064
0.467091
0.256595
0.072668
0.059847
0.109800
-0.070470
0.053270
0.023048
-0.039172
0.000448
-0.008646
-0.007012
-0.011604
0.036656
0.023238
0.070839
-0.090267
0.002560
-0.010822
-0.056828
0.001883
0.016492
-0.002423
0.023898
0.021992
0.023931
0.026839
0.040555
0.061755
-0.001645
-0.026932
-0.006333
0.010703
-0.028992
-0.045585
-0.014630
-0.019194
0.051391
0.018327
0.001244
0.023511
0.060229
0.115713
0.064922
0.053956
0.097098
0.038554
0.043535
0.095611
0.056402
0.094751
0.168172
0.170496
0.259165
0.255581
0.154866
0.225867
0.280568
0.429831
0.315917
0.396627
0.346481
0.287706
0.395822
0.311325
0.337522
0.281153
0.320428
0.285424
0.247109
0.147425
0.175267
0.097402
0.159060
0.051475
0.066412
0.074217
-0.001060
0.142689
0.001404
0.064287
0.074058
0.095162
0.007566
0.023736
-0.050147
-0.010795
0.048314
-0.020101
-0.014141
0.003298
0.034993
-0.004059
-0.072316
-0.032631
-0.067629
0.075355
0.009998
0.044923
-0.078954
-0.051819
0.024227
0.047808
-0.017060
-0.032583
0.060789
-0.023795
0.049466
-0.041866
-0.029441
-0.092176
-0.036048
-0.022168
0.008884
-0.021416
-0.037446
-0.045879
-0.001597
-0.007627
-0.038141
-0.039181
0.003280
-0.042661
-0.085138
0.000969
-0.023878
-0.042501
-0.009592
0.005619
-0.034356
-0.050868
0.033514
-0.070423
-0.002748
0.102843
-0.014637
0.122764
-0.029412
-0.060317
-0.030097
0.022644
-0.052611
-0.017452
0.035177
0.048069
0.021379
-0.066077
0.068231
0.075208
0.070141
0.032951
-0.044277
0.027767
0.025662
0.046594
0.050420
-0.009705
-0.069760
0.000731
0.049129
-0.015486
-0.049240
-0.036345
0.082967
0.044228
-0.091642
0.005051
0.011685
0.089129
-0.022163
0.039300
-0.029363
0.065935
0.077021
-0.013102
0.036433
0.010618
0.005890
-0.068181
-0.038741
-0.010567
0.021543
0.021444
0.114756
0.025970
0.052822
0.047582
-0.001205
0.012471
-0.013090
0.010333
0.025136
-0.014786
-0.036941
-0.066504
-0.076598
-0.064456
-0.007851
-0.096893
0.050553
0.057579
0.079742
0.047069
-0.044835
-0.078249
0.005182
-0.030296
-0.010573
-0.017830
-0.069032
0.040621
-0.015340
-0.022463
-0.054074
0.050628
-0.042085
-0.077949
0.127729
-0.049753
0.015038
-0.011730
-0.068092
0.140852
-0.024345
0.012549
-0.022612
-0.041052
0.011223
-0.015828
0.003199
-0.120142
0.026560
-0.010730
-0.004762
0.003605
0.064697
-0.000704
0.025764
-0.047050
-0.005051
-0.015576
0.085007
0.062115
-0.089795
-0.056419
0.000272
0.036512
0.083129
0.001816
-0.028065
0.074530
-0.064476
0.007763
0.041380
0.095510
0.172109
0.093611
0.225425
0.224778
0.190257
0.240198
0.158107
0.206280
0.196471
0.200194
0.145692
0.150177
0.168746
0.243665
0.150964
0.158002
0.063437
0.084848
0.114419
0.034211
0.136735
0.102592
0.014066
-0.010551
0.228990
0.461612
0.856094
1.081592
1.500793
1.553522
1.272159
1.075777
0.738324
0.389172
0.139117
0.083556
-0.019381
0.089644
-0.016172
0.086647
-0.000644
-0.057303
0.032898
-0.045259
0.039362
0.021134
-0.004303
0.018156
-0.038217
0.088897
-0.028747
0.014854
0.022950
0.037261
-0.076412
-0.002695
-0.044774
0.004452
0.068418
0.079662
0.093066
0.016824
-0.030386
0.116902
-0.010002
0.074830
0.022838
0.062707
0.010783
0.066391
0.041855
0.045687
0.031563
0.052783
-0.083923
0.060262
0.084658
0.066704
-0.002623
0.049720
0.014134
0.131519
0.134652
0.089086
0.210683
0.192209
0.257332
0.304642
0.194184
0.169292
0.250174
0.217474
0.363172
0.285509
0.273893
0.409756
0.324810
0.311183
0.296062
0.318685
0.340083
0.253793
0.245111
0.126663
0.130103
0.211975
0.066658
0.074612
0.020473
-0.069719
0.032959
0.054067
-0.013791
0.050732
0.018698
0.072361
0.017233
0.045981
-0.017413
0.065196
0.047989
-0.072910
0.020375
0.083353
-0.024334
-0.057404
-0.015211
-0.110287
-0.043876
-0.038509
0.022968
-0.013261
0.046079
-0.026643
0.011627
-0.049216
-0.023922
-0.003000
0.040089
0.062822
0.031854
-0.005085
-0.086401
0.085333
-0.025537
0.003121
0.059906
0.012381
-0.001603
-0.006060
-0.098989
-0.009282
0.069587
0.023044
0.003953
-0.047743
-0.022434
0.064184
-0.003971
-0.021280
-0.025563
-0.080790
0.018643
-0.009821
-0.064431
-0.037514
-0.048061
0.046434
-0.009029
0.022218
-0.016705
0.061941
-0.097079
0.039635
0.075709
-0.004277
0.089839
0.093341
-0.026210
-0.034593
0.015063
-0.062634
-0.081444
-0.080195
0.036811
-0.059835
0.037754
0.006765
0.107090
-0.015952
-0.096580
0.028161
0.061878
-0.038056
-0.002608
0.028680
-0.045079
0.030236
0.037683
-0.016064
0.012268
-0.043980
0.014414
-0.085195
0.040337
-0.075114
-0.044338
-0.041517
-0.012846
-0.001881
0.004529
-0.031279
0.000055
0.023490
-0.099191
0.026959
-0.081800
-0.013271
0.003376
-0.035694
-0.063081
0.075697
-0.036108
0.040810
0.052978
-0.050431
-0.041445
-0.093960
-0.025172
0.011401
0.003979
0.009472
0.038458
0.041899
0.038402
0.030592
-0.035835
-0.028948
0.025063
0.040400
-0.120513
-0.031657
0.088470
-0.047515
0.009158
0.122533
0.023824
0.053961
0.011978
-0.020200
-0.080611
0.039682
-0.040914
0.093732
-0.040028
-0.049116
-0.003557
-0.013643
0.019371
0.043014
0.032382
-0.087125
-0.033529
0.041644
0.099505
0.031124
-0.007325
-0.038650
0.030980
0.091688
-0.040300
-0.095254
-0.027266
-0.037507
-0.023766
-0.035137
-0.058954
0.013955
0.047428
-0.070812
-0.057062
0.037339
-0.092625
-0.004240
-0.042310
0.045082
-0.013206
-0.013110
0.035337
0.011407
-0.101412
-0.013282
0.116381
0.022732
-0.037387
0.032397
-0.023786
-0.101320
-0.150459
-0.068295
-0.054584
-0.022861
0.022152
-0.038225
-0.014367
-0.000996
0.044154
0.050078
0.039078
0.097857
-0.011446
0.031664
-0.017977
0.031093
-0.025046
0.007986
0.017000
-0.112744
-0.005295
0.029777
-0.027757
0.019748
0.073121
0.021444
0.001825
0.104735
-0.010077
-0.018090
0.035214
-0.069208
0.090573
0.010523
0.119399
-0.026065
0.045153
-0.024734
-0.003626
-0.019055
0.110314
-0.030901
0.027684
0.072805
0.007827
0.003515
0.030368
0.024735
-0.009786
-0.005624
0.009760
0.011486
0.040173
-0.010168
0.093465
0.031866
0.056093
-0.014169
0.084868
0.024363
-0.069470
0.016152
0.083023
0.036769
-0.000284
-0.073615
-0.056141
-0.078679
-0.062976
0.004682
0.023614
-0.089814
0.105824
0.041314
-0.013618
0.055493
0.014777
0.023621
-0.034269
0.006769
0.002843
-0.035293
0.007284
0.079995
0.039184
-0.041969
-0.039992
-0.048868
0.009654
0.009441
0.044517
-0.002997
0.030596
0.001905
-0.015507
-0.029801
-0.048514
0.023911
-0.070444
