-0.028137
-0.024519
0.009713
-0.022107
-0.034183
0.049234
-0.027859
0.049507
-0.016941
-0.046889
-0.046651
0.028203
0.054807
0.026004
0.014216
0.045195
0.025590
-0.030871
0.089083
0.034860
0.244170
0.144198
0.051387
0.122707
0.138997
0.136774
0.182430
0.266389
0.242172
0.123580
0.243231
0.249338
0.134824
0.132075
0.112156
0.119171
0.034201
0.060159
0.079161
0.005523
0.060708
0.064207
0.303670
0.434103
0.830342
1.082208
1.347277
1.415990
1.265184
0.851260
0.609386
0.438376
0.118820
0.152643
0.021741
-0.014580
0.016703
-0.070987
0.074410
0.009386
-0.003709
0.043705
0.121422
0.009213
-0.014786
-0.032639
-0.071420
-0.064506
-0.071099
-0.062975
0.019998
0.101703
-0.071853
0.029954
-0.009217
-0.109124
-0.001248
-0.000032
-0.000391
-0.010306
-0.068177
0.055755
0.032611
0.104467
0.043714
0.063817
0.072005
0.052383
0.081236
0.061046
0.030518
0.115809
0.114812
0.148477
0.138301
0.203160
0.157313
0.244423
0.300595
0.323628
0.330496
0.288438
0.283184
0.276663
0.320003
0.181203
0.292339
0.199221
0.141286
0.274129
0.138120
0.080271
0.120846
0.066620
0.046960
0.020473
0.036231
-0.000865
0.026967
0.105264
0.014140
-0.051226
0.007390
0.028658
-0.037518
0.079666
-0.000756
0.032365
0.044435
-0.050960
-0.070050
0.023056
0.044034
0.070159
-0.007164
-0.088192
-0.019272
-0.034498
-0.004750
0.032953
0.035033
-0.038584
-0.103395
-0.045267
0.013198
0.046083
-0.074121
-0.005721
0.017966
0.044484
0.072291
-0.028711
0.020518
0.017109
-0.042467
-0.020145
0.025434
0.074947
0.004941
0.061837
0.014166
-0.076188
-0.066496
-0.017703
-0.008511
-0.133366
0.105733
-0.035963
0.029836
-0.042154
0.043544
0.018838
0.014303
-0.000147
0.003880
0.051737
0.000438
-0.047946
0.070216
-0.001497
0.018819
-0.075504
-0.003351
-0.021330
0.001447
0.038193
-0.047814
-0.011373
0.021701
0.080900
-0.006557
-0.053934
0.094869
0.102124
0.078134
0.041146
0.027517
-0.056145
0.023366
0.086518
0.001719
0.090545
0.086107
0.198527
0.154203
0.177342
0.211162
0.158141
0.092451
0.167977
0.188344
0.274929
0.210673
0.170990
0.165951
0.174914
0.021653
0.030919
0.059139
0.016153
0.044268
0.174065
0.180289
0.355463
0.909493
1.087704
1.314690
1.431144
1.222338
0.945371
0.628446
0.376927
0.115395
0.246128
-0.038137
-0.042455
-0.012479
0.101672
0.032105
0.080700
0.004365
-0.067196
-0.032898
0.020303
-0.015684
0.043103
0.010582
-0.012038
-0.011277
-0.059393
-0.034215
-0.028193
0.009504
-0.027049
0.035229
0.036188
0.038573
0.040177
-0.002476
-0.024474
-0.061524
-0.092443
0.103060
-0.012771
0.072117
0.062532
-0.065900
-0.010356
-0.016306
0.115589
0.081624
0.114596
0.067834
0.079737
0.217145
0.231050
0.260882
0.274043
0.330027
0.325427
0.315811
0.204170
0.253227
0.370928
0.213928
0.256708
0.288657
0.103715
0.172899
0.199983
0.172729
0.058590
0.083083
0.107045
-0.013094
0.090312
0.068467
0.017664
-0.073948
0.108252
-0.063310
0.030555
0.018137
0.032409
0.078819
-0.044029
0.056819
-0.085150
-0.000087
0.012717
0.003092
-0.044843
0.053412
0.007471
0.107116
-0.082471
-0.011546
-0.022134
0.053971
-0.015172
0.052166
-0.048227
-0.059479
0.000716
-0.052116
-0.010061
-0.115919
0.019316
0.053338
0.024284
0.055819
-0.031576
-0.058130
-0.050477
-0.016022
-0.041219
-0.053819
-0.003862
-0.086851
-0.092159
-0.033233
-0.033211
0.046246
0.074145
-0.049106
-0.017735
0.116650
-0.054701
-0.010770
0.048322
-0.119941
-0.077371
-0.114070
0.056308
0.003507
-0.047205
-0.010783
0.027554
0.035745
0.003853
-0.039477
-0.011070
0.010709
-0.005951
0.096279
0.026593
0.007882
0.149285
-0.038898
0.018476
0.102953
-0.052962
0.054812
0.053268
0.066646
-0.005488
0.067401
0.008879
0.061206
-0.091762
-0.009225
0.096107
0.119989
0.135283
0.142183
0.169328
0.219943
0.146394
0.197822
0.139708
0.204231
0.194308
0.112240
0.239558
0.079565
0.114391
0.136010
0.076029
0.076526
-0.005806
0.048496
0.201196
0.208277
0.511095
0.778001
1.093128
1.276885
1.394992
1.192953
0.952548
0.619255
0.382623
0.121446
0.126172
0.046200
-0.021274
-0.023480
-0.019801
0.016129
0.072050
0.064105
0.011291
-0.050119
-0.050778
0.018651
-0.051285
0.062526
-0.141531
0.016022
-0.089721
0.051534
0.042838
-0.031599
0.021483
0.110079
-0.031453
-0.035648
-0.015347
-0.028934
-0.083716
0.023734
-0.038840
0.030631
0.094818
-0.033444
0.101732
-0.001205
0.063034
0.069922
0.039956
0.113950
0.206079
0.181554
0.171163
0.131720
0.156695
0.265049
0.332078
0.258731
0.232546
0.259219
0.316379
0.352262
0.258211
0.236281
0.298211
0.251663
0.177074
0.256872
0.176219
0.117810
0.051240
0.054539
0.025709
0.001013
0.003758
-0.000458
-0.022492
-0.019304
0.047252
-0.010713
0.009485
0.033082
0.022084
0.022131
0.013624
0.024693
-0.003666
-0.028946
-0.020226
0.078456
0.046886
0.050253
-0.021841
0.053466
-0.044753
-0.096846
0.061977
-0.005332
0.021512
0.009107
-0.036578
-0.028594
-0.070281
0.023114
-0.029455
-0.010676
-0.012531
-0.046659
-0.034051
0.083154
-0.013872
-0.121414
0.034059
0.000023
0.070283
-0.000481
0.094075
-0.021098
-0.131483
-0.043761
-0.031476
-0.046945
-0.059577
-0.037679
0.028432
-0.079169
0.009132
-0.084577
-0.037988
-0.022180
0.007382
-0.000077
-0.000903
-0.080838
0.019943
0.031193
0.020720
0.017285
-0.004120
-0.076029
0.056351
-0.012980
-0.081479
0.049057
0.049046
0.035316
0.048572
0.015880
-0.004921
-0.003363
0.051873
-0.009432
0.059525
-0.021514
-0.014036
0.048001
-0.025597
-0.005807
0.010169
-0.042713
0.028227
0.105908
-0.035487
0.217415
0.134106
0.196066
0.186782
0.310692
0.170143
0.290854
0.141438
0.187350
0.089277
0.248346
0.140436
0.076461
0.019847
0.069758
0.038948
0.119777
0.153131
0.257949
0.503280
0.777798
1.058266
1.444049
1.366530
1.319731
0.903208
0.614141
0.338685
0.135530
0.094779
0.006674
-0.045478
0.003577
0.047382
0.080845
0.015253
-0.025535
-0.071974
-0.025562
-0.067550
-0.032235
0.005472
-0.057322
-0.022406
-0.043158
0.040427
-0.032003
-0.033903
-0.086001
0.041389
0.040621
0.089042
0.030125
-0.081728
-0.048462
0.024582
-0.037797
0.021479
-0.029258
-0.043486
0.074740
0.061649
0.090999
0.043364
0.154223
0.113261
0.043307
0.110301
0.149609
0.148009
0.214181
0.279633
0.212690
0.181078
0.208885
0.283657
0.297951
0.316763
0.221533
0.319811
0.292983
0.315576
0.191397
0.277950
0.190017
0.135989
0.174793
0.104755
0.133017
0.116829
0.009584
0.073817
0.130139
0.002436
-0.038622
-0.011181
0.035366
0.062350
-0.060705
0.087760
-0.034645
0.074317
-0.013507
-0.004749
-0.002490
0.079100
-0.037239
-0.017108
0.003437
0.097353
-0.047070
-0.025793
-0.038511
0.011010
0.029085
-0.021888
-0.089910
-0.012244
-0.027391
0.044611
-0.053137
0.024598
0.036327
0.009547
0.040822
0.009645
-0.028614
0.067844
0.068988
-0.014236
-0.018086
-0.026922
0.003702
-0.025966
0.036124
-0.014743
0.006674
-0.031293
-0.041768
0.049484
0.001195
-0.016106
-0.046336
-0.025744
-0.026227
0.080034
0.001843
0.103256
-0.028930
0.047628
-0.111927
0.054360
0.026883
-0.068196
0.039952
0.060785
-0.017839
-0.011660
-0.078765
0.020381
-0.012149
0.104977
-0.011873
0.006247
-0.025295
0.001726
0.027211
0.014266
-0.119675
0.024840
-0.026701
-0.014193
0.024344
0.021141
-0.032420
0.014513
0.070030
0.059855
0.056869
0.190052
0.092342
0.225794
0.250377
0.352837
0.214142
0.219972
0.145749
0.217377
0.075203
0.135926
0.061203
0.013927
0.078273
0.083606
0.109140
0.033105
-0.019774
0.150392
0.353265
0.507645
0.853572
1.210492
1.421319
1.385681
1.216820
0.932228
0.502818
0.309553
0.142867
0.026610
0.028997
0.031591
0.015218
0.001343
-0.001391
0.014394
-0.028690
0.019238
-0.067616
-0.068178
-0.012755
0.059706
-0.023681
0.016475
-0.022618
0.039755
0.020074
0.027308
-0.051095
0.042435
0.046060
-0.062639
0.095162
-0.090025
-0.037900
0.018348
-0.041941
0.046066
0.012283
-0.052706
-0.053013
0.063006
0.037120
0.070092
0.065383
0.109623
0.139523
0.143171
0.124157
0.205961
0.195595
0.223600
0.281833
0.256376
0.297563
0.369958
0.343320
0.202755
0.323929
0.234014
0.371798
0.238489
0.197833
0.231687
0.235912
0.186765
0.185901
0.060875
0.033282
0.162195
0.106665
-0.011689
0.107008
0.010926
-0.001140
-0.003462
-0.063231
-0.048135
0.004882
0.034146
0.054114
-0.008535
-0.058049
-0.014096
0.061156
0.001724
0.057178
0.009687
0.056484
-0.033041
-0.051537
0.039473
-0.043666
-0.003548
-0.116422
0.002106
-0.099726
0.070997
-0.002453
-0.033491
0.031821
-0.086974
-0.011015
0.062390
-0.086309
0.036196
-0.036533
0.006674
-0.055938
-0.010717
0.120467
0.048425
0.022335
0.021453
-0.084651
-0.030863
-0.106082
-0.020844
-0.051309
0.030442
-0.019967
-0.113609
-0.143919
0.002544
0.086441
-0.021617
-0.033848
0.080550
0.075230
0.020563
0.007444
0.026664
0.046360
-0.039969
0.119374
0.026829
-0.041776
-0.023420
-0.095728
-0.057817
-0.052376
0.067064
0.044817
-0.019205
-0.047855
-0.105295
0.044069
0.024985
-0.017254
0.055794
0.056422
0.041413
0.045117
0.020346
0.117420
0.056691
0.087453
0.060623
0.142307
0.152050
0.162054
0.131951
0.164972
0.196969
0.185262
0.190033
0.334860
0.150306
0.179106
0.100421
0.069185
0.042775
-0.021893
0.039397
0.090004
0.004660
0.022739
0.182196
0.339760
0.523841
0.957450
1.163016
1.278271
1.399561
1.292722
0.814840
0.590403
0.316228
0.197353
-0.065159
0.012434
-0.087894
0.042904
0.013145
0.026999
0.090859
-0.014649
0.036776
-0.073326
-0.064703
-0.006990
0.074140
-0.010110
0.056372
0.050003
0.001703
-0.086832
-0.002914
-0.002978
-0.040763
0.043424
-0.004295
0.040985
0.046739
0.121230
0.109119
-0.101142
0.022104
-0.050405
-0.021219
0.018973
0.036813
0.104619
0.095123
0.058720
0.083682
0.061476
0.207415
0.107161
0.231345
0.156747
0.140131
0.326204
0.143182
0.249950
0.263677
0.283550
0.272244
0.283179
0.385266
0.293971
0.268634
0.100713
0.269393
0.191665
0.131492
0.076012
0.121586
0.155162
0.057211
0.047318
0.028681
0.020752
-0.016996
-0.007120
-0.131151
-0.066512
-0.009192
0.033762
-0.009925
-0.004626
-0.038366
-0.033314
-0.024055
-0.007741
-0.010059
0.015542
0.034965
0.057465
-0.038586
-0.089956
-0.028347
0.035354
0.094350
0.085886
0.049854
-0.045296
-0.060846
0.036743
-0.004783
0.049239
0.002047
-0.133020
0.000849
0.034742
0.048162
0.016654
0.028232
0.046763
0.051678
-0.068455
0.055103
0.006847
0.011573
0.048759
-0.033424
-0.088777
0.024062
-0.061048
0.029715
-0.001079
0.008202
-0.046566
0.003426
-0.025938
0.063951
-0.033969
0.009656
-0.047677
0.072762
0.046283
-0.016650
0.018061
0.023565
0.003590
-0.000305
-0.016127
-0.035482
0.037752
0.000073
0.049318
-0.031678
0.110324
-0.075906
0.029191
0.011295
-0.004107
0.017310
-0.043019
0.019405
-0.013586
0.026590
0.055460
0.055133
0.094354
0.013148
-0.018858
0.020045
0.153979
0.081698
0.130203
0.213764
0.090650
0.201782
0.120985
0.207793
0.193968
0.069268
0.120777
0.232670
0.106008
0.030546
0.047636
0.039546
-0.063824
-0.010991
0.070009
0.146483
0.251524
0.535802
0.883849
1.206483
1.361305
1.333601
1.105599
0.958843
0.513250
0.209462
0.139314
0.015981
0.049535
-0.010335
-0.093587
-0.025917
-0.032191
-0.040416
-0.015517
0.091001
-0.061653
0.064233
-0.003962
-0.029451
-0.005144
-0.060172
0.018456
-0.099710
0.015324
-0.089925
0.083947
-0.050284
-0.039131
0.004184
0.002765
-0.035982
0.061392
0.024426
-0.002205
0.035605
-0.115424
0.022899
0.064956
-0.021755
0.056107
0.073566
0.029768
0.023970
0.008723
0.111515
0.150448
0.162088
0.248863
0.175558
0.165133
0.209168
0.324187
0.290628
0.272028
0.357098
0.201642
0.311526
0.291445
0.176818
0.243764
0.283564
0.147547
0.062693
0.134545
0.071134
0.061533
0.024828
0.065633
0.007878
0.037920
0.114810
0.022007
0.014129
0.093968
0.015638
-0.078302
0.041344
-0.029280
-0.052753
0.015075
-0.033307
-0.055036
0.033842
0.072408
-0.010081
0.034240
0.029881
-0.095764
-0.012609
-0.074700
-0.091264
-0.021013
-0.104261
-0.039618
-0.015613
-0.029713
0.048068
-0.078260
0.108271
-0.014213
0.000741
-0.008861
-0.019637
0.007876
-0.058866
-0.001249
0.055613
0.067396
-0.065691
-0.060901
-0.100730
0.044155
0.039894
-0.010917
0.089559
-0.038670
-0.056302
-0.099274
0.051479
0.081067
0.035702
-0.052448
0.060881
0.031170
0.022970
-0.055731
-0.013367
-0.095184
-0.033990
-0.054219
0.019802
0.030423
-0.076176
0.039055
-0.067680
0.035051
-0.097073
0.112283
-0.044879
0.071500
0.060147
-0.080779
-0.046234
0.022656
-0.033520
-0.065437
-0.040275
0.083089
-0.013669
-0.057676
0.060958
0.051123
0.037259
0.029582
0.110913
0.091262
0.172199
0.145812
0.177983
0.220687
0.197529
0.255116
0.448487
0.136661
0.129202
0.121680
0.213407
0.113411
0.094377
0.090967
-0.007437
0.009004
0.074405
0.083002
0.081043
0.246066
0.551504
0.976153
1.193062
1.422559
1.425525
1.119921
0.838528
0.512235
0.364092
-0.025022
-0.009225
0.060439
-0.008640
0.049819
0.080291
0.029387
0.012617
-0.090197
0.017098
0.057128
0.011550
0.050927
-0.042025
0.021202
0.045362
-0.040518
0.020635
0.041091
0.009683
0.010015
-0.093935
-0.007602
-0.034723
0.014751
-0.034131
-0.007298
-0.063447
0.041469
-0.032797
0.024395
0.044323
0.068298
-0.001078
0.044261
-0.000061
0.018565
0.033760
0.091778
0.061763
0.183325
0.114132
0.224044
0.259404
0.156768
0.258484
0.322342
0.337872
0.366057
0.290610
0.276795
0.252196
0.261934
0.183576
0.204370
0.278600
0.166080
0.227299
0.163391
0.104105
0.066871
0.113250
0.051111
0.047897
0.046061
0.055637
-0.103776
0.028231
-0.013527
0.054014
0.031651
0.043969
0.017347
-0.055269
0.049265
-0.053600
0.081613
-0.004484
0.022511
-0.094191
0.021932
-0.014439
0.014516
0.000644
0.007655
0.073645
-0.053455
0.008569
-0.009599
-0.006130
0.093565
-0.020486
-0.065604
0.030577
-0.050338
-0.012298
-0.085913
0.039212
-0.014909
0.005330
0.013633
-0.033049
-0.024643
-0.013560
0.012416
-0.023252
-0.126425
0.026042
-0.037378
0.025347
0.054129
0.008343
-0.012105
0.013911
0.026692
0.013496
0.037835
0.011091
-0.056302
0.026196
-0.073888
0.047320
-0.024687
-0.037774
-0.111751
-0.014957
-0.036575
-0.041232
0.054717
-0.060557
0.032551
0.054182
0.039263
0.007557
0.048065
0.119024
-0.054932
-0.012916
-0.026078
-0.053243
-0.028756
-0.009274
-0.035125
-0.106192
-0.047319
0.121484
0.142423
0.016187
-0.057201
0.173456
0.009421
0.178684
0.253224
0.095560
0.055515
0.186144
0.180117
0.210443
0.169333
0.145978
0.123239
0.115016
0.009098
0.199164
0.108981
-0.021033
0.077477
-0.071398
0.088122
0.165089
0.348152
0.596360
0.959096
1.162396
1.438158
1.315391
1.155063
0.714024
0.543236
0.246049
0.116958
0.079149
0.071200
0.077853
-0.052677
-0.068744
-0.063671
-0.025685
-0.001320
-0.075956
0.001242
0.052391
-0.005538
-0.009717
0.032939
-0.044789
0.036404
-0.034320
-0.005335
0.068279
0.032222
0.062034
0.030832
0.033790
-0.120717
0.049087
-0.016444
-0.012100
0.038636
0.081504
0.068479
0.033601
0.070755
-0.042677
0.132399
0.042806
0.020061
0.180375
0.123424
0.051979
0.106432
0.158438
0.212710
0.217004
0.227003
0.240224
0.371989
0.271579
0.263086
0.245800
0.308672
0.222037
0.256103
0.278649
0.194140
0.229937
0.182977
0.147837
0.134238
0.141614
0.016304
0.085393
0.098509
0.107281
0.060411
0.085827
-0.006777
-0.047868
0.045355
-0.038340
-0.004243
-0.013422
0.122987
-0.010269
0.028151
-0.001827
-0.025970
0.048061
-0.005523
-0.041148
-0.027110
0.020016
-0.031061
0.007452
0.027493
-0.016286
0.007032
-0.084915
0.010303
-0.008281
-0.020467
0.023448
-0.034440
0.016799
0.020753
-0.001566
0.011456
0.034439
0.020416
-0.024808
-0.045975
0.001940
-0.000125
0.042183
-0.069418
0.002006
0.043019
-0.030347
-0.018804
0.005501
0.035700
0.076079
0.039755
-0.046309
0.040625
-0.096463
0.044088
-0.012247
-0.042280
0.011057
-0.027650
-0.071634
-0.024867
-0.028511
0.008085
0.066378
0.024392
0.021663
0.048238
0.015576
0.001495
-0.035144
-0.004413
-0.024484
0.040704
-0.035888
0.032185
-0.005829
0.001604
0.022195
-0.024258
0.001491
-0.014886
-0.013483
0.006954
0.071429
0.018565
0.093052
0.038191
0.069356
0.169926
0.179572
0.089098
0.207895
0.211690
0.202099
0.207904
0.277274
0.221296
0.125235
0.165026
0.075508
0.127754
0.170310
0.088037
-0.002882
0.150843
0.040279
0.069532
0.217541
0.301708
0.592322
0.907594
1.260216
1.358576
1.331659
1.150210
0.871556
0.445191
0.251842
0.127665
0.086577
0.065116
0.052995
0.004181
0.035216
0.020659
0.045637
-0.018196
0.014818
-0.001637
-0.018044
0.003384
-0.056063
-0.074525
-0.009707
-0.025530
-0.033492
0.084680
-0.083192
0.126828
0.066136
0.018386
-0.001489
-0.092259
0.081323
-0.007037
0.040311
-0.012641
0.099334
-0.018944
0.021261
0.034915
0.040238
0.047231
0.114942
-0.022613
0.050675
0.159615
0.094947
0.191191
0.240815
0.306541
0.198525
0.191644
0.261439
0.255843
0.307841
0.193975
0.250575
0.364311
0.215972
0.334390
0.216664
0.249849
0.203828
0.229052
0.102851
0.093640
0.128331
0.129465
0.045174
0.054932
0.042746
0.034342
0.104038
0.115609
-0.025525
0.010641
-0.024628
-0.080383
0.006761
-0.045316
-0.082305
-0.027381
-0.071972
-0.043727
-0.041836
0.010449
0.087315
0.017230
-0.012695
-0.027061
-0.024877
-0.017177
-0.019627
-0.027618
0.002203
0.012319
0.099904
0.037098
-0.029497
-0.033794
-0.054696
-0.017684
-0.019007
-0.062062
0.053793
0.040206
-0.034483
-0.068824
0.017681
-0.092928
-0.030573
-0.022661
0.004899
-0.012784
0.032705
-0.002632
-0.018286
0.009667
0.022890
-0.006405
0.012544
0.007782
-0.080483
-0.009547
0.005962
0.025936
0.035988
0.020710
0.012276
-0.100243
0.010050
0.047102
-0.116746
-0.056428
0.004837
-0.038873
0.037916
0.014847
-0.044064
0.011322
0.080367
0.014822
0.038090
-0.067421
-0.045948
-0.015380
0.004583
-0.007628
0.036380
-0.051620
0.064001
-0.034698
0.025515
-0.025100
0.102189
0.093760
0.132529
0.049366
0.080218
0.212991
0.199414
0.213613
0.143749
0.179975
0.101867
0.223225
0.135321
0.158675
0.040771
0.045830
0.027147
0.050480
0.014055
-0.015844
0.052845
0.049891
0.160816
0.371857
0.681682
0.950134
1.248213
1.432254
1.339461
1.168438
0.835713
0.371164
0.286162
0.108304
0.041030
0.069488
0.015840
0.091522
-0.039804
0.047448
-0.009318
-0.012575
0.030948
0.045183
-0.045806
-0.054543
0.075997
0.048933
0.034344
0.066188
-0.006241
-0.038678
-0.038962
0.097876
-0.089866
0.093259
0.049425
0.021451
-0.087246
0.007301
-0.032023
0.080485
-0.090904
0.008253
0.035991
0.023089
0.004646
0.030182
0.127050
-0.019975
0.091642
0.073409
0.114397
0.136552
0.217181
0.318753
0.206680
0.198748
0.333585
0.268408
0.329958
0.373005
0.369893
0.290135
0.244887
0.224905
0.163178
0.228630
0.195068
0.212900
0.102144
0.128589
0.112740
0.072586
0.066167
0.036587
0.053611
-0.006139
-0.025618
0.012756
-0.029049
0.044123
0.029726
0.008590
0.051017
-0.050694
0.026267
-0.027486
0.033151
0.082748
-0.059275
-0.041568
0.052136
-0.000350
-0.009343
0.077076
0.054801
-0.009856
0.014279
0.090368
0.001752
0.109317
-0.019926
0.038689
-0.113653
-0.006841
-0.007472
0.073363
0.029719
-0.013124
0.015636
0.043692
0.031340
0.024607
0.045336
0.009110
0.024085
-0.024661
0.050339
-0.099218
-0.039930
-0.021721
0.030017
-0.003209
0.023294
-0.034151
0.021571
-0.088796
-0.094382
0.056600
0.033210
0.001831
0.060698
-0.064070
0.002979
0.034760
-0.056973
0.046234
-0.012906
-0.023597
-0.058095
0.011871
-0.018597
-0.089671
0.034196
-0.042634
0.019502
-0.023991
-0.015863
0.111583
-0.085987
-0.041836
0.062956
-0.022393
0.012456
0.054551
0.012078
-0.084191
-0.077352
-0.003418
0.100527
0.006802
-0.026880
0.059527
0.161959
0.027147
0.172285
0.162649
0.228522
0.216872
0.167207
0.158480
0.218473
0.167616
0.201104
0.131692
0.067242
0.076461
0.116181
0.018745
-0.000474
0.169877
0.122199
0.372035
0.610775
0.849725
1.227820
1.395637
1.290602
1.109498
0.807266
0.498218
0.347997
0.135652
0.003170
0.005997
-0.014299
0.106751
0.005285
0.079794
-0.044915
-0.109822
0.025960
0.063636
-0.037055
0.027526
0.039667
-0.014852
-0.058613
-0.050545
-0.035699
-0.084558
0.021466
-0.033296
0.070298
-0.019585
-0.023423
0.067144
0.025138
0.037503
-0.007464
0.015716
-0.068335
-0.005075
0.031488
0.038533
0.176093
0.043607
0.097273
0.080850
0.064378
0.058393
0.160464
0.240388
0.105104
0.168120
0.236213
0.253060
0.227159
0.280679
0.288595
0.305841
0.296020
0.324282
0.203215
0.196335
0.234020
0.204404
0.175036
0.204841
0.114641
0.178821
0.107024
0.077704
0.077911
0.124652
0.049039
0.026933
0.067756
0.021818
0.024313
-0.016614
0.046649
-0.015725
0.032475
0.001841
-0.020637
-0.009539
-0.017893
0.048610
0.000693
0.013249
-0.059018
0.007355
-0.024062
0.013024
-0.067132
-0.007352
-0.060239
-0.009825
0.019553
0.029486
-0.033741
-0.066004
-0.043989
0.121603
0.030356
0.003158
-0.036351
-0.092098
0.013937
0.006134
-0.025226
0.040561
0.013726
-0.043184
-0.015523
0.022659
0.025504
-0.045884
-0.007640
0.019300
-0.018818
-0.091147
-0.006124
-0.033790
-0.009706
0.096056
-0.096087
0.012824
-0.001903
0.086696
0.037389
-0.078881
-0.020856
-0.042595
0.041208
0.058137
-0.018185
-0.005682
0.012489
-0.004918
-0.047335
0.066224
0.009061
0.051461
0.052251
0.012812
0.050228
0.032351
0.094442
-0.007369
-0.016694
-0.021806
-0.035491
-0.028905
0.091275
-0.002315
0.066552
-0.012765
-0.004641
0.032169
0.161150
0.117999
0.119710
0.172670
0.076034
0.241516
0.181783
0.262531
0.171509
0.217058
0.200298
0.149724
0.108894
0.089048
0.083957
0.217473
0.039956
0.103306
0.075096
0.151583
0.195325
0.347903
0.548120
1.054738
1.220102
1.476193
1.419818
1.003017
0.847192
0.499692
0.230809
0.162177
0.030110
0.046559
-0.040305
-0.077312
0.013061
-0.010240
-0.031819
-0.050494
-0.032456
0.031449
-0.007846
0.061635
-0.006044
0.077120
-0.037501
-0.037450
-0.025229
-0.077422
-0.031739
0.018901
-0.040625
0.038304
0.066357
-0.017049
0.116521
-0.000560
-0.035503
0.001325
-0.055582
0.042936
0.033591
-0.046614
-0.062738
0.045529
0.072786
0.068645
0.056152
0.065927
0.076189
0.153841
0.234524
0.252342
0.254292
0.226286
0.320287
0.262458
0.231541
0.255404
0.254864
0.210383
0.285976
0.285864
0.251127
0.290564
0.176624
0.126960
0.236133
0.143388
0.075573
0.109800
0.074509
0.091679
-0.002514
0.034224
0.019755
0.043925
-0.021024
-0.061204
0.003446
0.024884
0.026309
0.009678
-0.033989
-0.037489
0.063022
0.045005
-0.001490
-0.093401
-0.083490
0.009669
-0.145230
-0.018358
-0.040382
-0.055725
-0.107231
0.019897
-0.067396
0.046779
0.067468
-0.016112
-0.044468
-0.046816
0.009005
-0.104319
-0.021086
-0.076581
0.059997
0.052522
-0.021102
-0.014351
0.012460
-0.044858
-0.038962
0.074557
-0.053003
0.036783
0.026561
0.000350
0.042636
-0.010091
-0.059479
-0.086986
-0.038945
0.002157
-0.030285
0.121368
-0.039963
-0.012177
-0.103546
0.058276
0.031929
0.006152
-0.047588
-0.023755
-0.022006
-0.058144
-0.029538
0.024316
0.020234
-0.051153
-0.029916
-0.011897
-0.023347
0.016600
0.048919
-0.041089
-0.094312
0.008881
-0.013855
0.043669
0.012587
-0.048275
0.044153
0.012717
0.016252
0.005025
-0.060458
0.064400
0.067470
0.051333
0.097948
0.118346
0.176049
0.218445
0.245944
0.232362
0.153774
0.218552
0.234690
0.115509
0.096365
0.101181
0.071816
0.032251
0.121632
0.057564
0.023364
0.067493
0.229293
0.362174
0.670925
1.083474
1.333748
1.345419
1.272237
1.076671
0.752034
0.382973
0.163404
0.076495
0.003747
-0.021255
0.033700
-0.006896
-0.029157
0.023231
-0.022217
0.092147
0.015398
0.057728
0.025361
-0.044347
0.014906
0.040049
0.030582
-0.037298
0.104772
-0.026455
-0.013036
0.056317
0.085200
-0.013252
0.017216
-0.035952
-0.002267
0.024795
0.011364
0.063001
-0.029903
-0.018242
-0.015840
0.044876
-0.032342
0.120239
0.082957
0.071922
0.105775
0.155427
0.197880
0.148380
0.196760
0.209287
0.302459
0.291014
0.294654
0.284984
0.287955
0.249594
0.278802
0.308469
0.322891
0.287330
0.169337
0.161468
0.186522
0.196800
0.158455
0.096814
0.010310
0.108204
0.027630
0.051210
0.076930
0.013185
0.032614
0.022349
0.103800
-0.015572
0.024469
0.019148
0.082438
0.098822
0.005751
0.068776
-0.012723
-0.052437
-0.010503
0.064428
-0.018269
-0.044200
-0.036467
0.015332
-0.032839
0.037276
0.026720
0.007022
0.009707
0.042358
0.027905
-0.017881
0.023878
0.060920
-0.022360
-0.016073
-0.089938
-0.001080
-0.043871
-0.111452
-0.004893
0.041514
0.081694
0.022085
0.001232
-0.018918
0.006715
-0.118467
-0.011719
-0.015816
-0.002509
0.007191
0.028795
0.079626
0.032994
-0.055605
-0.000825
-0.055993
0.036537
-0.083202
-0.078810
-0.026924
0.026805
-0.086349
0.042025
-0.084502
-0.065334
-0.037116
0.053651
-0.101020
0.009826
-0.071720
-0.097633
-0.030261
0.034656
-0.033575
0.004558
0.009217
-0.061282
-0.037763
0.099769
0.025028
-0.083946
0.011142
-0.054483
-0.007346
-0.011601
0.152899
0.027057
0.085641
0.109150
0.159409
0.059433
0.094272
0.096477
0.157611
0.148122
0.299251
0.307538
0.216145
0.141809
0.205324
0.031554
0.064645
0.201096
0.112026
0.058490
0.095735
0.057758
0.048209
0.285319
0.394957
0.676799
1.037521
1.261838
1.410548
1.307172
1.013802
0.609872
0.477894
0.203361
0.121765
0.006799
-0.053262
0.014636
-0.063510
-0.022882
-0.053341
0.070476
0.002838
0.001368
0.031621
-0.009388
0.049848
-0.014569
0.001282
0.022022
-0.025431
-0.023707
0.038405
-0.016706
0.043940
-0.063702
-0.068646
-0.023772
-0.034966
-0.074680
-0.022996
0.095484
0.005107
0.123920
-0.021455
0.025381
-0.011386
0.053440
-0.001167
0.018315
0.081837
0.071707
0.131577
0.180190
0.177418
0.117625
0.238130
0.250389
0.239250
0.317815
0.233455
0.343486
0.321810
0.297206
0.281341
0.263772
0.275158
0.255889
0.203006
0.159595
0.062558
0.137269
0.091957
0.146186
0.088421
0.076422
0.099123
0.050598
0.008367
0.041940
-0.001388
-0.012298
0.084897
0.012331
-0.006138
0.020816
-0.007589
0.061472
-0.049768
-0.126069
0.068575
-0.012185
-0.019911
-0.012477
-0.050716
-0.028961
-0.024911
0.027006
-0.026305
0.021133
-0.016840
0.039800
-0.040291
0.007929
0.027636
0.015438
-0.011734
0.010245
0.006155
-0.064427
0.068519
0.036457
0.076004
-0.029889
0.001556
-0.004517
0.036502
0.065039
0.000654
0.053299
0.018514
0.023909
0.009394
-0.000797
0.045035
0.065801
0.023306
0.012968
-0.014512
0.076469
-0.070303
-0.142777
0.025650
0.045194
0.042141
0.066358
-0.040611
0.029925
0.018844
0.007206
0.018259
-0.077737
0.045450
-0.034834
-0.033249
0.014140
0.050691
-0.010735
-0.046581
-0.008339
-0.002235
-0.069166
-0.051366
0.035704
0.036489
-0.024211
-0.006545
-0.011626
0.034617
0.004507
0.106870
0.083187
0.055359
0.022185
0.104704
0.102462
0.144042
0.227446
0.151663
0.197182
0.202678
0.144629
0.106940
0.094911
0.109600
0.125815
0.078804
0.154869
0.036763
0.018205
0.022961
0.034091
0.195600
0.176805
0.408448
0.705453
1.025389
1.362998
1.393480
1.332363
1.005508
0.667841
0.515953
0.283250
0.128733
0.088247
0.008508
-0.092890
-0.009070
0.047538
0.094669
-0.042881
-0.111439
0.083378
-0.055160
-0.012740
0.014687
-0.015283
0.096077
0.002488
0.036754
-0.074850
0.026350
0.046968
0.040077
0.018122
0.036700
-0.046008
0.026234
-0.026962
0.037693
-0.090496
-0.081628
-0.072640
0.060903
0.035385
0.018279
-0.041283
0.078057
0.182364
0.144984
0.110842
0.190129
0.077011
0.240093
0.229979
0.182866
0.290093
0.223316
0.263929
0.243473
0.279249
0.271125
0.339632
0.208312
0.218647
0.240756
0.173482
0.161712
0.195556
0.136902
0.184922
0.145810
0.129655
0.104766
0.023939
0.032820
0.136885
-0.009948
0.019140
0.096381
0.026278
-0.045953
0.076814
0.009427
-0.019313
-0.026427
0.049572
-0.007384
0.015390
0.027937
0.024273
0.010306
0.079863
0.027971
0.051699
0.012681
-0.027513
0.024547
-0.089056
0.055651
-0.088050
0.029753
-0.012205
0.023295
0.010760
-0.024066
0.039634
-0.036525
-0.034680
0.007405
-0.055362
0.007657
-0.094334
0.013066
0.108370
0.043438
-0.017675
0.008230
0.050371
-0.010101
-0.047828
-0.069005
-0.001047
0.016258
0.008462
-0.100441
-0.019735
-0.108472
-0.005425
0.049301
-0.047709
-0.018312
0.019729
0.013190
-0.069584
-0.016377
0.077695
0.015340
0.002435
-0.096766
-0.063253
0.045707
-0.040995
0.021638
-0.046677
-0.061749
-0.038425
0.040821
-0.058242
0.034153
-0.017480
-0.015379
-0.034935
0.009307
-0.081589
0.134121
-0.044273
0.012484
0.026921
0.122127
0.036484
0.080392
0.064325
0.139588
0.199760
0.208467
0.177751
0.213462
0.221021
0.319170
0.108921
0.130336
0.165818
0.157028
0.169698
0.055615
0.008076
0.057205
0.030309
0.081602
0.144138
0.122398
0.265353
0.402185
0.663091
0.949866
1.222137
1.324918
1.337981
1.036376
0.664833
0.405474
0.159634
0.067538
-0.033738
0.016164
0.048618
0.012487
0.014983
0.017589
-0.046493
0.035551
-0.006232
-0.082015
0.063791
-0.006584
-0.020050
-0.051038
-0.058433
0.079488
-0.016547
-0.025269
-0.029046
-0.055713
0.036404
-0.006563
-0.008460
-0.073283
-0.036128
-0.020616
0.014021
0.004214
0.004052
0.089658
0.023411
0.073388
0.088679
-0.015382
-0.013543
0.090175
0.165302
0.153938
0.184029
0.199812
0.214559
0.226288
0.303302
0.214602
0.286082
0.341713
0.287051
0.349745
0.274413
0.262196
0.283120
0.223465
0.199622
0.113182
0.124391
0.218566
0.227107
0.135917
0.060377
0.090959
0.007745
0.162888
-0.009798
0.093481
-0.032695
0.014794
0.057530
-0.003853
0.111598
-0.029637
-0.025175
-0.004704
0.085003
-0.039427
0.019928
0.058778
-0.008161
0.028750
0.047122
-0.064364
0.025995
-0.036549
-0.018806
0.009971
0.035993
-0.063072
0.081870
0.028168
-0.019658
-0.005134
0.084121
-0.025980
-0.024582
-0.004834
0.000781
-0.047869
0.049447
-0.006125
-0.000610
0.053267
0.054866
0.026484
0.033369
0.006263
0.056962
0.026446
-0.071989
-0.016283
-0.053933
-0.090565
0.045637
0.067269
-0.053430
0.049796
0.001768
0.105569
0.085910
-0.029189
0.056525
-0.084675
-0.113459
0.006050
0.009628
-0.006784
-0.068195
0.054144
-0.024775
-0.021362
-0.032832
0.010012
-0.120309
0.025854
-0.077241
-0.030941
0.013939
0.089661
0.068977
-0.030519
-0.086432
0.079849
-0.022853
0.107870
-0.094980
-0.032602
0.019831
0.070019
0.046244
0.080227
0.098543
0.075318
0.134743
0.115481
0.163781
0.247846
0.179654
0.165461
0.238029
0.199411
0.100368
0.154900
0.073718
0.037728
0.026226
0.050234
0.046502
0.116273
0.092495
0.105789
0.261095
0.462321
0.687925
1.149540
1.313622
1.551826
1.292419
0.940449
0.696078
0.314312
0.165246
0.087795
0.147537
-0.009234
0.042297
-0.003534
-0.012224
-0.015240
0.076346
0.062710
0.041714
0.052823
-0.064362
-0.075691
-0.032770
-0.029532
0.045299
-0.021656
-0.028592
0.029213
-0.013767
-0.058331
0.073465
-0.040025
-0.022272
0.018594
0.018301
0.020977
0.062134
-0.044998
0.057282
-0.043665
-0.045286
0.065689
0.043991
0.069927
0.064408
0.053119
0.062432
0.068116
0.150634
0.068503
0.120294
0.185052
0.207865
0.283560
0.269652
0.285786
0.299325
0.280113
0.297499
0.210518
0.274006
0.345958
0.180473
0.154268
0.170556
0.260119
0.138684
0.177955
0.071867
0.083487
0.049313
0.043365
0.098705
0.016093
-0.041922
-0.032182
-0.019285
0.065455
-0.042913
0.086548
0.029102
0.005197
0.020930
0.067758
-0.054416
-0.022476
-0.067962
0.055902
0.004666
-0.019928
0.030120
0.007801
0.042494
-0.042311
0.039817
0.019012
-0.107195
-0.080014
0.052385
0.019038
-0.022874
-0.028240
0.022267
-0.034654
0.040641
0.069214
0.073941
-0.026872
-0.051861
-0.037617
0.001386
-0.059644
-0.031308
0.119093
0.071126
0.029324
0.162837
-0.041389
0.030191
-0.046786
0.031248
-0.021911
-0.071178
-0.027548
-0.008241
0.028962
-0.069425
-0.018476
0.023145
0.072201
-0.029495
-0.063081
0.047200
0.027228
0.006586
-0.110144
0.143277
0.026832
0.074524
-0.045862
-0.088654
0.034254
-0.151930
0.011086
-0.026262
-0.013804
0.051213
-0.020591
0.058536
-0.106724
-0.077655
-0.068452
0.027142
-0.015692
0.064412
0.018592
0.087434
0.059619
0.101165
0.163515
0.137437
0.186837
0.139140
0.245187
0.109266
0.159918
0.276545
0.164039
0.223158
0.132665
0.079783
0.067637
0.045119
0.019384
0.062132
-0.009514
0.047118
0.107960
0.268011
0.386274
0.698226
1.045252
1.296082
1.450275
1.249176
0.886192
0.587839
0.401487
0.141693
0.131502
0.068327
-0.059447
0.064474
0.078716
0.010457
-0.056963
-0.063693
-0.010074
-0.002959
0.036200
0.003822
0.037024
0.028206
-0.028819
0.002110
0.012332
-0.079506
-0.007272
0.056946
0.039637
-0.005295
-0.028844
-0.013175
-0.020620
-0.022346
0.033619
0.011407
0.030476
-0.062112
-0.025362
-0.024234
-0.058928
0.028537
0.089261
0.154323
0.117345
0.112017
0.156556
0.085839
0.145352
0.194782
0.183149
0.202415
0.226165
0.272126
0.344728
0.265684
0.242337
0.237973
0.234352
0.345798
0.237421
0.198307
0.192430
0.193228
0.214062
0.150558
0.039020
0.082625
0.088334
0.086032
0.018566
0.070032
0.000597
0.018429
0.112626
-0.055575
-0.069924
0.004897
-0.046286
0.049319
-0.071176
0.065602
-0.079064
0.024373
0.051280
0.040408
0.021967
0.024499
0.020695
0.058639
0.033746
-0.050746
-0.023264
0.066018
-0.018672
-0.052146
0.009117
0.049467
-0.028209
-0.071998
0.022876
0.089711
0.015130
-0.071620
0.030281
0.055497
-0.007143
-0.065287
0.049775
-0.124828
-0.041160
0.005510
0.029752
-0.008519
0.051673
0.049729
-0.042177
-0.016267
-0.048105
-0.041810
-0.060727
-0.006852
-0.003103
0.027953
0.006610
0.023582
0.008802
-0.089579
-0.018330
-0.018426
0.022688
0.004955
0.002307
0.048083
-0.034440
-0.025583
0.010715
-0.004211
-0.022739
-0.077364
-0.019903
0.025126
0.030984
0.026066
0.001341
0.089056
-0.012535
-0.061063
-0.048042
-0.003943
0.037181
0.051024
0.109445
0.039945
0.056653
0.069021
0.091975
0.093462
0.102852
0.102229
0.103373
0.212222
0.158712
0.159828
0.190223
0.171608
0.097146
0.180354
0.145282
0.174241
0.120054
0.084228
0.109674
0.101094
0.019063
-0.020310
0.143697
0.257223
0.567602
0.737525
1.018750
1.340310
1.466353
1.210610
1.051025
0.662089
0.364123
0.157573
0.065018
0.010175
-0.033055
0.052400
0.082595
-0.067384
0.020459
-0.077978
0.023349
-0.026971
-0.015593
0.001698
-0.026329
0.003080
-0.020881
0.003253
0.009826
0.011046
-0.055221
0.023623
0.018532
0.014843
-0.043651
-0.049349
-0.016193
-0.066398
0.011925
0.012472
-0.020542
-0.047715
0.066052
0.062194
0.069623
0.032852
-0.015374
-0.059779
0.109621
0.110788
0.015701
0.196834
0.186696
0.304586
0.246095
0.287438
0.260942
0.219341
0.262993
0.290115
0.293694
0.310018
0.301144
0.292701
0.235014
0.200424
0.250989
0.172019
0.095744
0.182235
0.094694
0.088266
0.027959
0.066257
-0.001719
0.020003
0.063590
0.031840
-0.006370
0.018744
-0.082975
0.013669
-0.024304
-0.061924
0.051998
-0.016494
0.040263
-0.011787
-0.118464
-0.108506
0.037095
0.028008
0.002506
-0.053822
0.024919
0.051500
0.001033
-0.073379
-0.074572
0.065235
-0.072359
0.092200
0.036415
0.032663
-0.016543
0.074389
-0.030161
0.064337
0.069999
-0.058758
-0.011871
0.000194
0.023727
0.037558
0.044047
-0.023236
0.143409
-0.006864
0.012797
0.029067
0.048257
-0.046524
0.060274
-0.098527
0.000434
0.020177
-0.022132
-0.023612
0.124495
0.037932
0.040011
-0.059318
0.021952
-0.047160
0.086334
0.000535
0.010289
0.055504
-0.004956
0.018794
