time,amplitude
0.0,0.04637056541024018
0.0027785495971103086,0.09227731301827545
0.005557099194220617,0.0077185300074486774
0.008335648791330925,-0.013664922556686014
0.011114198388441235,0.010823489472540289
0.013892747985551544,-0.04983434238186324
0.01667129758266185,0.04581199322167209
0.01944984717977216,0.016429057827566207
0.02222839677688247,0.03448371224537715
0.025006946373992776,-0.018995295502036345
0.027785495971103087,0.016488393642631334
0.030564045568213394,-0.05010926187007764
0.0333425951653237,0.018105978494486627
0.03612114476243401,-0.039157475456654246
0.03889969435954432,0.05052856683298486
0.04167824395665463,0.09545520637119154
0.04445679355376494,-0.01223361438991459
0.04723534315087525,-0.021168861736392153
0.05001389274798555,0.03926314844197261
0.052792442345095864,-0.030035506255427565
0.055570991942206174,-0.006336143901146961
0.05834954153931648,0.004341305747129016
0.06112809113642679,0.005190015458461634
0.06390664073353709,-0.020970048553269578
0.0666851903306474,-0.04266669164465612
0.06946373992775771,0.02540656255284786
0.07224228952486803,0.02886076165136129
0.07502083912197834,-0.09403884795474783
0.07779938871908865,-0.01075477679873097
0.08057793831619894,0.03981093846424391
0.08335648791330925,0.040736211326373985
0.08613503751041957,0.059770362873044894
0.08891358710752988,0.06346767963770061
0.09169213670464019,0.05826073851222884
0.0944706863017505,0.1393024866043961
0.09724923589886081,0.12553627825739438
0.1000277854959711,0.1254538405964545
0.10280633509308142,0.18059180420181997
0.10558488469019173,0.2093364716980821
0.10836343428730204,0.2074300327626719
0.11114198388441235,0.268420268126941
0.11392053348152266,0.1673585618846135
0.11669908307863296,0.18277383149791115
0.11947763267574327,0.2913232283884412
0.12225618227285358,0.33268091364581254
0.1250347318699639,0.2435901819238221
0.12781328146707419,0.22213332601502545
0.1305918310641845,0.18449428120444236
0.1333703806612948,0.2140636800742374
0.13614893025840513,0.15710765277001704
0.13892747985551543,0.08702126352740627
0.14170602945262575,0.145252904725788
0.14448457904973605,0.07297172684358275
0.14726312864684635,0.01428233050270164
0.15004167824395667,-0.04785844298507157
0.15282022784106697,0.07152924465822502
0.1555987774381773,0.003142114722457238
0.1583773270352876,-0.0444185337605657
0.1611558766323979,0.11355293770487648
0.1639344262295082,0.11194238374906136
0.1667129758266185,0.2991652640275442
0.16949152542372883,0.5039023639086873
0.17227007502083913,0.8579143926278112
0.17504862461794946,1.1745504383499128
0.17782717421505975,1.3998881543876613
0.18060572381217005,1.6093499327332066
0.18338427340928037,1.3160909710433488
0.18616282300639067,0.9968604258118928
0.188941372603501,0.6630249201315934
0.1917199222006113,0.35339166527753285
0.19449847179772162,0.12519396894536322
0.19727702139483191,0.11653487503630885
0.2000555709919422,0.08369175102920846
0.20283412058905254,-0.07798097777802215
0.20561267018616283,-0.016337958829278874
0.20839121978327316,-0.008689993461624752
0.21116976938038345,-0.010815921068166132
0.21394831897749375,-0.009919507749298324
0.21672686857460408,0.023763145483127426
0.21950541817171437,-0.01783800746120462
0.2222839677688247,-0.03578082482740809
0.225062517365935,0.009927642397584532
0.22784106696304532,-0.04708227725339018
0.23061961656015562,0.11035530938705657
0.2333981661572659,-0.03898451092963746
0.23617671575437624,0.0553085176275633
0.23895526535148653,-0.06152535110425614
0.24173381494859686,0.051077416440304876
0.24451236454570716,0.025825304307728107
0.24729091414281748,0.0474906045432559
0.2500694637399278,0.007297278342846536
0.2528480133370381,-0.018499465129818527
0.25562656293414837,0.022148017074538333
0.2584051125312587,0.028630624348110065
0.261183662128369,-0.09089814151463395
0.26396221172547935,0.003883971352248236
0.2667407613225896,-0.02469482014413043
0.26951931091969994,-0.014607449894786588
0.27229786051681026,0.06900304483886016
0.27507641011392053,-0.027808131178701255
0.27785495971103086,0.041746991805553545
0.2806335093081412,0.08035067486181234
0.2834120589052515,-0.01531833903199294
0.2861906085023618,0.06587423888652238
0.2889691580994721,-0.059113542351685595
0.2917477076965824,0.023351440194615884
0.2945262572936927,0.08872247995918664
0.297304806890803,0.006687907366913651
0.30008335648791334,0.042021368241409965
0.3028619060850236,-0.007254505594699746
0.30564045568213394,0.004894369480618705
0.30841900527924426,-0.017407662340104754
0.3111975548763546,0.004899178698074977
0.31397610447346486,-0.0301169057758855
0.3167546540705752,0.030995945468084977
0.3195332036676855,0.1004765819049631
0.3223117532647958,0.09265743773810978
0.3250903028619061,0.1711200782539724
0.3278688524590164,0.07967146522667864
0.33064740205612675,0.18907784159073382
0.333425951653237,0.1274174118678906
0.33620450125034734,0.275844351076288
0.33898305084745767,0.2325673991558782
0.34176160044456794,0.22763170408395883
0.34454015004167826,0.25715313516844407
0.3473186996387886,0.22136859692071295
0.3500972492358989,0.27249081546004394
0.3528757988330092,0.25111522646084794
0.3556543484301195,0.2930060904316224
0.35843289802722983,0.3143369189530164
0.3612114476243401,0.35471259251871473
0.3639899972214504,0.3431948820612455
0.36676854681856075,0.3421397064516296
0.3695470964156711,0.2512817281937128
0.37232564601278134,0.33132690952252136
0.37510419560989167,0.24989741903582788
0.377882745207002,0.2596111603671926
0.38066129480411226,0.16022783951395653
0.3834398444012226,0.1986970595416128
0.3862183939983329,0.19402009678570528
0.38899694359544323,0.12258111034089861
0.3917754931925535,0.17077781603314
0.39455404278966383,0.06307621832272053
0.39733259238677415,0.13587362264309777
0.4001111419838844,0.10748841804819843
0.40288969158099475,0.0738470608802898
0.40566824117810507,-0.003534324659376302
0.4084467907752154,-0.01716227315743514
0.41122534037232567,0.022849536011371303
0.414003889969436,0.008126666618756486
0.4167824395665463,0.014467490453987488
0.4195609891636566,0.016124444730677156
0.4223395387607669,0.07231457672252124
0.42511808835787723,-0.0029336838379635227
0.4278966379549875,-0.03887432170223798
0.4306751875520978,0.052358717779397726
0.43345373714920815,-0.01159301548580415
0.4362322867463185,0.06836030182043806
0.43901083634342875,0.0266487969674993
0.44178938594053907,-0.013692057419312504
0.4445679355376494,-0.054723213261765005
0.44734648513475966,0.07084251473480065
0.45012503473187,0.014834026175611964
0.4529035843289803,0.00867023498917745
0.45568213392609064,-0.020247769933694454
0.4584606835232009,0.030398746969967368
0.46123923312031123,0.053807132859314745
0.46401778271742156,0.017214219181095388
0.4667963323145318,0.032572334404125165
0.46957488191164215,-0.015735128186562395
0.4723534315087525,0.05770795514679424
0.4751319811058628,-0.026557834882612666
0.47791053070297307,0.04104933552911189
0.4806890803000834,0.037840981864152766
0.4834676298971937,-0.07160025176151545
0.486246179494304,-0.01004356964354931
0.4890247290914143,0.02459301555649246
0.49180327868852464,-0.1182713302409204
0.49458182828563496,0.026037815652604348
0.49736037788274523,0.05229927249215325
0.5001389274798556,0.052510065893968026
0.5029174770769659,-0.07843902324068171
0.5056960266740762,0.027604145015598387
0.5084745762711865,0.06258131938059894
0.5112531258682967,0.019743832539373864
0.5140316754654071,0.006178426400382645
0.5168102250625174,-0.04232479691651005
0.5195887746596277,0.13247976104174874
0.522367324256738,0.08069201461362695
0.5251458738538484,-0.02667676503906228
0.5279244234509587,0.05834347996793014
0.5307029730480689,0.002593595308636835
0.5334815226451792,-0.05080455692040493
0.5362600722422896,-0.0018866318903181022
0.5390386218393999,0.05370777840374697
0.5418171714365102,0.10592985230120476
0.5445957210336205,-0.10425530215594331
0.5473742706307309,-0.0357199609500498
0.5501528202278411,0.012563955080908249
0.5529313698249514,0.04455843706104864
0.5557099194220617,-0.006982957384888602
0.558488469019172,0.0005647656788063082
0.5612670186162824,-0.013491644843532482
0.5640455682133927,0.054104862420370194
0.566824117810503,-0.06630204461546771
0.5696026674076132,0.017311113133654292
0.5723812170047236,0.06266454469957394
0.5751597666018339,-0.0055476911398372715
0.5779383161989442,-0.00833892128118936
0.5807168657960545,-0.016721247179110478
0.5834954153931649,-0.043621503293067194
0.5862739649902752,0.05126780034652614
0.5890525145873854,0.050480705682274245
0.5918310641844957,0.036380724351111164
0.594609613781606,0.009559738809036997
0.5973881633787164,-0.00386958424753431
0.6001667129758267,0.06687655621430626
0.602945262572937,0.04158598807554002
0.6057238121700472,-0.09174899479093346
0.6085023617671576,-0.010699968983666886
0.6112809113642679,0.0007841266666070263
0.6140594609613782,0.06805115868385116
0.6168380105584885,0.010394305283453295
0.6196165601555989,-0.015523336759403311
0.6223951097527092,0.058987948886803754
0.6251736593498194,0.04376333422437036
0.6279522089469297,-0.033610995663624334
0.63073075854404,-0.01323125561350713
0.6335093081411504,-0.08759526051121662
0.6362878577382607,0.020462163852972653
0.639066407335371,-0.03900111148460596
0.6418449569324813,0.010424120099666121
0.6446235065295916,-0.09294737566250713
0.6474020561267019,-0.010135042341548751
0.6501806057238122,0.05088448273129387
0.6529591553209225,0.07771413585293957
0.6557377049180328,0.034398761257912344
0.6585162545151432,0.005654747008780396
0.6612948041122535,-0.09748296811373686
0.6640733537093637,-0.0676329687752104
0.666851903306474,0.035521163276779955
0.6696304529035844,0.04449154805937845
0.6724090025006947,0.012753168603162363
0.675187552097805,-0.0047905722753968155
0.6779661016949153,-0.014116858999579929
0.6807446512920257,0.09456863454347961
0.6835232008891359,-0.010522711186759043
0.6863017504862462,0.07009523740355021
0.6890803000833565,-0.006372457953496631
0.6918588496804668,-0.04083443980126372
0.6946373992775772,0.10052502134390884
0.6974159488746875,0.10884535181895022
0.7001944984717978,-0.01483963525202741
0.702973048068908,0.07269580900830026
0.7057515976660184,0.036277083773357345
0.7085301472631287,0.017373749205833774
0.711308696860239,-0.006016132735752005
0.7140872464573493,0.0010902751824633059
0.7168657960544597,0.012621957266403208
0.71964434565157,-0.042931096060963986
0.7224228952486802,0.1159679377245184
0.7252014448457905,0.029695643214952924
0.7279799944429008,0.05118652875165496
0.7307585440400112,-0.045219215861088326
0.7335370936371215,-0.06594603683778542
0.7363156432342318,0.007379577908299587
0.7390941928313421,-0.00997891627576996
0.7418727424284524,-0.010501974274988618
0.7446512920255627,0.04278855919041845
0.747429841622673,-0.02170365576764284
0.7502083912197833,-0.025691804638176337
0.7529869408168937,0.042032182524236746
0.755765490414004,-0.04048576592086601
0.7585440400111143,0.08922719179253179
0.7613225896082245,-0.009116954860612899
0.7641011392053348,-0.01034058340276035
0.7668796888024452,-0.06515920689083728
0.7696582383995555,-0.03577852687880666
0.7724367879966658,0.025014618885884937
0.7752153375937761,0.003455378152005914
0.7779938871908865,-0.026808248532135148
0.7807724367879967,0.02229704868479091
0.783550986385107,0.07349552396560433
0.7863295359822173,0.005557544408150452
0.7891080855793277,-0.040547749418365316
0.791886635176438,0.04729653751345003
0.7946651847735483,-0.09267947175748503
0.7974437343706586,-0.03204882093249684
0.8002222839677688,0.005435112996349056
0.8030008335648792,-0.015579296091794129
0.8057793831619895,4.589679992494483e-05
0.8085579327590998,0.06439111091561293
0.8113364823562101,0.019198967545393023
0.8141150319533205,0.020840305049073755
0.8168935815504308,-0.09583375240954281
0.819672131147541,0.016813806483825907
0.8224506807446513,-0.014060180233427646
0.8252292303417617,-0.07111763816659428
0.828007779938872,0.03948319288898828
0.8307863295359823,0.11922188156520692
0.8335648791330926,-0.0317916886220071
0.8363434287302028,0.012656607596285164
0.8391219783273132,0.0417602041574857
0.8419005279244235,-0.048226704631250304
0.8446790775215338,-0.029939401569355657
0.8474576271186441,-0.020890398834313564
0.8502361767157545,-0.11721500090621907
0.8530147263128648,0.005830394938454019
0.855793275909975,0.0068867863264915835
0.8585718255070853,0.04091429681794918
0.8613503751041957,-0.15804935208460416
0.864128924701306,0.01749170566618953
0.8669074742984163,-0.05121508178818672
0.8696860238955266,0.07536073660047214
0.872464573492637,0.005837428518451817
0.8752431230897472,0.010550983801474663
0.8780216726868575,-0.05197932936974436
0.8808002222839678,0.022094294586234197
0.8835787718810781,0.039020202556368955
0.8863573214781885,-0.03207112185950639
0.8891358710752988,0.051781449953042145
0.8919144206724091,0.040896031482057255
0.8946929702695193,0.07981355344411203
0.8974715198666297,0.04860250404262167
0.90025006946374,0.2002672698549069
0.9030286190608503,0.1766044922159442
0.9058071686579606,0.14785036729960432
0.908585718255071,0.23316260323983978
0.9113642678521813,0.2528940772224645
0.9141428174492915,0.1645162499005977
0.9169213670464018,0.2253456799484367
0.9196999166435121,0.2863510953899956
0.9224784662406225,0.2210472737515067
0.9252570158377328,0.20161580007569613
0.9280355654348431,0.26173746432425116
0.9308141150319534,0.2046021387546246
0.9335926646290637,0.15731144306834083
0.936371214226174,0.08432039143315007
0.9391497638232843,0.10860442030155193
0.9419283134203946,0.041677760846914845
0.944706863017505,0.12253369939474842
0.9474854126146153,0.08622865901984832
0.9502639622117256,0.0869366127253415
0.9530425118088358,0.046861467880532165
0.9558210614059461,0.027977142655993454
0.9585996110030565,0.013120855954163617
0.9613781606001668,0.0773344255493057
0.9641567101972771,0.10511938093887307
0.9669352597943874,0.2487047685064332
0.9697138093914978,0.4742511985095837
0.972492358988608,0.8148011350227291
0.9752709085857183,1.177351417917173
0.9780494581828286,1.4672083459518301
0.980828007779939,1.419543682540994
0.9836065573770493,1.252641846151667
0.9863851069741596,0.9833515044176274
0.9891636565712699,0.6767527052631009
0.9919422061683801,0.3337667585332059
0.9947207557654905,0.15964240550520722
0.9974993053626008,0.002974050039160653
1.000277854959711,0.006809188456886484
1.0030564045568213,0.10937584445403527
1.0058349541539318,-0.06765065881235463
1.008613503751042,-0.025254980370018307
1.0113920533481524,-0.052283107712426564
1.0141706029452626,0.018364050357287328
1.016949152542373,0.01862356980805627
1.0197277021394833,0.06326857709580133
1.0225062517365935,0.022152592930663243
1.025284801333704,0.00031707575379236376
1.0280633509308141,0.059104168577815926
1.0308419005279246,0.015967066406551926
1.0336204501250348,-0.024097436587106346
1.0363989997221452,0.052441825306761274
1.0391775493192554,-0.015259837774251226
1.0419560989163656,-0.03881188570130984
1.044734648513476,-0.07411233192439623
1.0475131981105863,-0.0013606082521848946
1.0502917477076967,0.034606372763688435
1.053070297304807,-0.030103065569274556
1.0558488469019174,0.07691830040503154
1.0586273964990276,-0.00956543272499803
1.0614059460961378,0.01738376951730252
1.0641844956932482,0.05345466567422571
1.0669630452903585,-0.005023865369174661
1.069741594887469,-0.06319095405093397
1.072520144484579,0.04189033322077852
1.0752986940816895,-0.08506096244702377
1.0780772436787998,-0.012751858803132734
1.08085579327591,-0.007228753447381281
1.0836343428730204,-0.0027440590743436945
1.0864128924701306,0.08157513671288188
1.089191442067241,0.0205358420414938
1.0919699916643513,0.07415379077161308
1.0947485412614617,-0.03267232056457833
1.097527090858572,-0.06549394757565201
1.1003056404556821,-0.10160231965127282
1.1030841900527926,0.018172741494930734
1.1058627396499028,0.028689607276173923
1.1086412892470132,0.10323390764043078
1.1114198388441234,0.05284701288853485
1.1141983884412339,0.0778274958569189
1.116976938038344,-0.0007559017524842795
1.1197554876354543,0.07083068472968361
1.1225340372325647,0.0700149348517539
1.125312586829675,0.14515063564544387
1.1280911364267854,0.15479750152373684
1.1308696860238956,0.15788324487979027
1.133648235621006,0.14091985263897414
1.1364267852181162,0.2016086491000684
1.1392053348152265,0.1719628565782675
1.141983884412337,0.20220553547151615
1.144762434009447,0.23228222494348996
1.1475409836065575,0.3626930298334567
1.1503195332036678,0.3312456061335879
1.1530980828007782,0.406916666631125
1.1558766323978884,0.31790525870030356
1.1586551819949986,0.3906631564853185
1.161433731592109,0.33693408277405984
1.1642122811892193,0.3502784761243608
1.1669908307863297,0.37476099603669194
1.16976938038344,0.3890315277419058
1.1725479299805504,0.23335068758692
1.1753264795776606,0.18874481767622714
1.1781050291747708,0.3248816314026852
1.1808835787718812,0.1617005071315893
1.1836621283689914,0.18460229509705314
1.1864406779661019,0.17908601625241852
1.189219227563212,0.14887913237052305
1.1919977771603223,0.16850270838353668
1.1947763267574327,0.09552121665933361
1.197554876354543,0.07790156668166531
1.2003334259516534,0.014988325648356983
1.2031119755487636,-0.015224785884403597
1.205890525145874,0.0254304546883482
1.2086690747429842,0.04472829772544622
1.2114476243400945,0.007224457061232915
1.214226173937205,-0.03760453476300227
1.217004723534315,0.008931020674504627
1.2197832731314255,0.09452511939237167
1.2225618227285358,-0.008602137080884946
1.2253403723256462,-0.0516137357230778
1.2281189219227564,-0.0636483816718141
1.2308974715198666,-0.049274088632826694
1.233676021116977,0.05792081944666175
1.2364545707140873,-0.0033967768006494337
1.2392331203111977,-0.07407450770491951
1.242011669908308,0.06946638126115087
1.2447902195054183,0.0019136081412623762
1.2475687691025286,0.11364509250728476
1.2503473186996388,-0.0022753893631374963
1.2531258682967492,0.0192452729638123
1.2559044178938594,-0.010532620975141413
1.2586829674909699,0.0729666624623997
1.26146151708808,0.028436340187909658
1.2642400666851905,-0.01953876325383278
1.2670186162823007,-0.06759391373155384
1.269797165879411,-0.02012515839552559
1.2725757154765214,-0.0006422726592831109
1.2753542650736316,0.013582583997499353
1.278132814670742,-0.023079666835052276
1.2809113642678522,-0.020376534909078745
1.2836899138649627,-0.023804060151223383
1.2864684634620729,0.0017556498276092973
1.289247013059183,0.022737365772013022
1.2920255626562935,0.052426087373264034
1.2948041122534037,0.039466853708956307
1.2975826618505142,-0.003963442079781204
1.3003612114476244,-0.03546286019254771
1.3031397610447348,-0.0022708548931826816
1.305918310641845,0.0200280109791057
1.3086968602389553,-0.0074009393705417
1.3114754098360657,0.03275867032254828
1.314253959433176,-0.015203465788273753
1.3170325090302863,0.07175884055669118
1.3198110586273966,-0.02696045911114113
1.322589608224507,0.0758484655811595
1.3253681578216172,-0.058430846212213144
1.3281467074187274,0.01656742759864461
1.3309252570158379,0.03459039458076018
1.333703806612948,0.006786573976140679
1.3364823562100585,-0.05635547450424565
1.3392609058071687,0.0055738202523655305
1.3420394554042792,-0.0047100277884832625
1.3448180050013894,0.02138139144157228
1.3475965545984996,-0.05754668699179627
1.35037510419561,0.010812264406249899
1.3531536537927202,0.001636447816943809
1.3559322033898307,-0.04401793410335292
1.3587107529869409,-0.057460054498006674
1.3614893025840513,0.07740407531098181
1.3642678521811615,0.03516705414239733
1.3670464017782717,0.07073038087768001
1.3698249513753822,-0.02308828466746524
1.3726035009724924,-0.06486423138281777
1.3753820505696028,0.13795591436661003
1.378160600166713,0.002855255686857786
1.3809391497638235,-0.0453941247249142
1.3837176993609337,-0.03703290139451055
1.386496248958044,0.009378329601535815
1.3892747985551543,-0.03916438662233403
1.3920533481522646,0.02982110673948077
1.394831897749375,-0.10153286548477324
1.3976104473464852,0.09413076598714369
1.4003889969435956,-0.05733650841268473
1.4031675465407059,-0.0057055587981597825
1.405946096137816,-0.07398377308459134
1.4087246457349265,-0.006459583655113294
1.4115031953320367,0.011788966043396585
1.4142817449291472,-0.07398832603921446
1.4170602945262574,0.004307869456754226
1.4198388441233678,0.0965871222727037
1.422617393720478,-0.03156689946774766
1.4253959433175882,0.06653846818324434
1.4281744929146987,-0.06703899578510612
1.4309530425118089,-0.004436785929992292
1.4337315921089193,0.03260110305599521
1.4365101417060295,-0.02770090453039183
1.43928869130314,-0.045931904724661014
1.4420672409002502,-0.05990405058292747
1.4448457904973604,0.0005505615419500252
1.4476243400944708,0.05876889150225372
1.450402889691581,-0.026066842959621545
1.4531814392886915,-0.005101387353563794
1.4559599888858017,0.04343566794332884
1.4587385384829121,-0.06751738865609229
1.4615170880800223,-0.031184951914698833
1.4642956376771326,0.03835599528793
1.467074187274243,0.06102393891954499
1.4698527368713532,-0.01867650126996557
1.4726312864684636,0.039105724992040576
1.4754098360655739,-0.037468035047352584
1.4781883856626843,0.006161011360928489
1.4809669352597945,0.05744669264886903
1.4837454848569047,0.0813527512392939
1.4865240344540152,-0.017119406899595263
1.4893025840511254,0.0159143970200476
1.4920811336482358,0.02932533202367898
1.494859683245346,-0.09704507329571854
1.4976382328424565,0.11633763192842253
1.5004167824395667,0.040997233650895096
1.5031953320366769,-0.047732303687236154
1.5059738816337873,0.02826685933158961
1.5087524312308975,-0.023713022681561155
1.511530980828008,-0.04053987522244841
1.5143095304251182,-0.11017043918023471
1.5170880800222286,-0.007917887896971308
1.5198666296193388,0.038196394623776025
1.522645179216449,0.03051644736536286
1.5254237288135595,-0.07424581942352011
1.5282022784106697,0.014796815051717704
1.5309808280077801,0.062261823305087095
1.5337593776048903,-0.02145181283779342
1.5365379272020008,0.028838559521951752
1.539316476799111,-0.023532434722601733
1.5420950263962212,-0.06357005923489666
1.5448735759933316,0.007428183013443332
1.5476521255904419,0.024609995488653655
1.5504306751875523,-0.040635090304389374
1.5532092247846625,0.014600285087348572
1.555987774381773,0.045158353449731986
1.5587663239788832,-0.028628378555147677
1.5615448735759934,0.01710122437781451
1.5643234231731038,-0.06997068407950874
1.567101972770214,-0.0059837072758520205
1.5698805223673244,0.0244620601051886
1.5726590719644347,-0.09649227520319187
1.575437621561545,-0.05592134567269952
1.5782161711586553,-0.04581791280427875
1.5809947207557655,-0.048053429080419485
1.583773270352876,0.050298646640119016
1.5865518199499862,0.004168999603328016
1.5893303695470966,-0.05482239855627682
1.5921089191442068,-0.027228607563487585
1.5948874687413173,-0.01235086405763497
1.5976660183384275,0.04048348770711567
1.6004445679355377,0.0036969126716665033
1.6032231175326481,0.033770792356071104
1.6060016671297583,0.007129505063062123
1.6087802167268688,-0.004405319978215336
1.611558766323979,0.10343865570890509
1.6143373159210894,0.0999941142732668
1.6171158655181996,0.09232480464045056
1.6198944151153098,-0.04290232466521682
1.6226729647124203,-0.007388495987012262
1.6254515143095305,0.0037480040906179416
1.628230063906641,-0.025590505056890155
1.6310086135037511,-0.078092575206738
1.6337871631008616,0.02887921948532104
1.6365657126979718,-0.04126035953346293
1.639344262295082,-0.07958263697728298
1.6421228118921924,-0.0800688332692784
1.6449013614893027,-0.05426173932821163
1.647679911086413,-0.07389449307048548
1.6504584606835233,-0.008237891223762438
1.6532370102806337,-0.042746809847746654
1.656015559877744,0.002235812684809898
1.6587941094748542,0.08302493877904422
1.6615726590719646,-0.03165353829865876
1.6643512086690748,0.03826388101874186
1.6671297582661853,0.039721644239498234
1.6699083078632955,-0.005852037106458759
1.6726868574604057,0.05050397823293442
1.6754654070575161,-0.0583862763609731
1.6782439566546263,0.13953969262731988
1.6810225062517368,0.02791621244283444
1.683801055848847,-0.041270958888574905
1.6865796054459574,0.03494845021625538
1.6893581550430676,0.025614629295318218
1.6921367046401778,-0.02844017954721735
1.6949152542372883,0.03198761776271844
1.6976938038343985,0.14608761313960436
1.700472353431509,0.075654258296415
1.7032509030286191,0.12627395080189008
1.7060294526257296,0.26442938881563427
1.7088080022228398,0.07578021042280725
1.71158655181995,0.25116714031946946
1.7143651014170604,0.17733434853246163
1.7171436510141707,0.18820011437890638
1.719922200611281,0.25341715018310995
1.7227007502083913,0.2177887269751434
1.7254792998055017,0.2544837354768747
1.728257849402612,0.19352823099269378
1.7310363989997222,0.20807908644767598
1.7338149485968326,0.057851612273214253
1.7365934981939428,0.14352847126019846
1.7393720477910533,0.10426964258106647
1.7421505973881635,0.1174304266022563
1.744929146985274,0.1917189331899623
1.7477076965823841,0.012425291251442656
1.7504862461794943,0.11096364076815643
1.7532647957766048,0.019056659744321386
1.756043345373715,0.0029429906673115076
1.7588218949708254,0.0825738271580932
1.7616004445679356,-0.002260528479635017
1.764378994165046,0.23427783958063397
1.7671575437621563,0.23143418834171145
1.7699360933592665,0.5734896716705029
1.772714642956377,0.870371138833095
1.7754931925534871,1.225121109688139
1.7782717421505976,1.4271607378753888
1.7810502917477078,1.45545395697706
1.7838288413448182,1.3225064235601884
1.7866073909419284,0.979376568570262
1.7893859405390387,0.6051246262451148
1.792164490136149,0.2936337135311735
1.7949430397332593,0.17937242842297868
1.7977215893303697,-0.08042520771041502
1.80050013892748,-0.016845570482590128
1.8032786885245904,-0.039357765605104296
1.8060572381217006,-0.006413405395708123
1.8088357877188108,0.0080088930721775
1.8116143373159213,0.0340376402722728
1.8143928869130315,-0.0737949672957506
1.817171436510142,-0.034172208294640516
1.8199499861072521,0.02242709395814113
1.8227285357043626,-0.09049278145159528
1.8255070853014728,0.044484994463828906
1.828285634898583,-0.04203024609952284
1.8310641844956934,-0.01952303618945369
1.8338427340928036,-0.033175464118470784
1.836621283689914,0.0779903178082885
1.8393998332870243,-0.14654560832615773
1.8421783828841347,-0.0022371681144648823
1.844956932481245,-0.002992204627206016
1.8477354820783551,0.03438530625164822
1.8505140316754656,-0.032353724282431065
1.8532925812725758,0.07038985522035429
1.8560711308696862,-0.08347880111859132
1.8588496804667964,-0.008244865934849728
1.8616282300639069,0.06000751155820445
1.864406779661017,-0.06093083433634493
1.8671853292581273,-0.055382811303355824
1.8699638788552377,-0.029803911043826674
1.872742428452348,-0.009566850394494994
1.8755209780494584,-0.05658232228380839
1.8782995276465686,-0.06388458257192155
1.881078077243679,-0.06663698256180876
1.8838566268407893,0.007045007193495819
1.8866351764378995,-0.006338606893003855
1.88941372603501,-0.011715461611631266
1.8921922756321201,0.02582796632683326
1.8949708252292305,-0.046523790942763515
1.8977493748263408,0.15895152844492344
1.9005279244234512,-0.00699204506770713
1.9033064740205614,0.054504164566679114
1.9060850236176716,0.021780909745736397
1.908863573214782,0.03982698949695726
1.9116421228118923,0.05445255508458824
1.9144206724090027,0.01384471853535646
1.917199222006113,0.025993402262207484
1.9199777716032234,0.036650278149209896
1.9227563212003336,0.056811736548789224
1.9255348707974438,0.09374161821609846
1.9283134203945542,0.10791793342008353
1.9310919699916644,0.19559789624833115
1.9338705195887749,0.11161026411739904
1.936649069185885,0.23393415142200064
1.9394276187829955,0.24847488246121952
1.9422061683801057,0.23124638062783004
1.944984717977216,0.3222544970762947
1.9477632675743264,0.3778860349615152
1.9505418171714366,0.3253885315956923
1.953320366768547,0.2115494105430198
1.9560989163656572,0.2717421678341141
1.9588774659627677,0.32445643072401315
1.961656015559878,0.35640893932830253
1.964434565156988,0.28163022378827857
1.9672131147540985,0.402087734404261
1.9699916643512088,0.33657675229918965
1.9727702139483192,0.2254734881774615
1.9755487635454294,0.32881128799259773
1.9783273131425398,0.24313495867702706
1.98110586273965,0.24721143590490707
1.9838844123367603,0.2683020382060323
1.9866629619338707,0.05162772780291788
1.989441511530981,0.15843514121253088
1.9922200611280914,0.15362157842177468
1.9949986107252016,0.0792876641706515
1.997777160322312,0.08561942422235748
2.000555709919422,0.1465158982417856
2.0033342595165324,0.08088095020950811
2.0061128091136426,0.008053031730118988
2.0088913587107533,0.020056399417935147
2.0116699083078635,0.03533490666460264
2.0144484579049737,0.09315434933436244
2.017227007502084,0.043684662721634085
2.020005557099194,0.07898321193093666
2.022784106696305,0.08908722738370214
2.025562656293415,-0.09260536650068385
2.0283412058905252,-0.16834549938546947
2.0311197554876355,0.059671698996982
2.033898305084746,0.005773692476021045
2.0366768546818563,-0.043796853065708
2.0394554042789665,0.0034374428528176054
2.0422339538760768,0.10051557508374934
2.045012503473187,-0.027751377811693918
2.0477910530702976,-0.05494617739599595
2.050569602667408,-0.015986630510601754
2.053348152264518,0.013098149570760617
2.0561267018616283,-0.07016431517672317
2.0589052514587385,0.007172128068544281
2.061683801055849,0.11533527510591901
2.0644623506529594,0.023079444161192116
2.0672409002500696,0.03276885142279732
2.07001944984718,0.03671044293061912
2.0727979994442904,-0.01706482189920206
2.0755765490414007,-0.0828563031364042
2.078355098638511,0.003828815346149661
2.081133648235621,-0.08062484571321951
2.0839121978327313,-0.010124588309580127
2.086690747429842,0.032745060558879685
2.089469297026952,0.0826028580195206
2.0922478466240624,-0.06893798073483957
2.0950263962211726,0.037213851226022394
2.097804945818283,0.054863553270356885
2.1005834954153935,0.009076421783871226
2.1033620450125037,0.07429411416979084
2.106140594609614,0.035647080277750195
2.108919144206724,-0.009473600747720481
2.1116976938038348,0.005517242367998741
2.114476243400945,0.04428316978052946
2.117254792998055,-0.07298754125234537
2.1200333425951654,0.03447050997786919
2.1228118921922756,-0.06443200235097737
2.1255904417893863,0.0274129023647084
2.1283689913864965,0.05595337875300555
2.1311475409836067,-0.005422643632525871
2.133926090580717,-0.06328332277112822
2.136704640177827,-0.09838750321304493
2.139483189774938,-0.03578399072790616
2.142261739372048,-0.03030239973720147
2.145040288969158,0.03622551778223242
2.1478188385662684,0.06769735862113589
2.150597388163379,-0.020071821174474976
2.1533759377604893,0.04306118264240565
2.1561544873575995,-0.04442267203171897
2.1589330369547097,0.036615795136485094
2.16171158655182,0.03284873441774488
2.1644901361489306,0.012245757060994594
2.167268685746041,0.0014493136404357637
2.170047235343151,-0.06333224711611683
2.1728257849402612,-0.032629526868520324
2.1756043345373715,0.08319708749044966
2.178382884134482,-0.03094026700060322
2.1811614337315923,-0.03228602457155047
2.1839399833287025,-0.0006987377108292035
2.1867185329258128,0.031013308880996973
2.1894970825229234,-0.006784448609541732
2.1922756321200336,-0.061493506136217214
2.195054181717144,0.09761619251961758
2.197832731314254,-0.03540512308341141
2.2006112809113643,0.02265674816089595
2.203389830508475,0.0017495711309461236
2.206168380105585,0.010635814996096915
2.2089469297026953,0.04359142051439277
2.2117254792998056,-0.0009506129653898398
2.2145040288969158,-0.025200691448341285
2.2172825784940264,0.08894544796983131
2.2200611280911366,0.05038278208418034
2.222839677688247,0.09121821148289005
2.225618227285357,0.0515460646406784
2.2283967768824677,0.07281859016138355
2.231175326479578,0.044646277036526905
2.233953876076688,-0.07810407083744088
2.2367324256737984,-0.029750713510934945
2.2395109752709086,-0.052319580214411604
2.2422895248680192,0.021752822036705394
2.2450680744651295,-0.029435310220808045
2.2478466240622397,-0.02425058448835295
2.25062517365935,0.08456150861586219
2.25340372325646,-0.08779121096371309
2.2561822728535708,-0.06276141289736147
2.258960822450681,-0.02461162252893588
2.261739372047791,-0.02418240638081304
2.2645179216449014,-0.06307684809167469
2.267296471242012,0.014311453964584803
2.2700750208391223,-0.03993861110881689
2.2728535704362325,0.04852945462879313
2.2756321200333427,0.04749856624271853
2.278410669630453,0.06849939756037723
2.2811892192275636,-0.11186411166367138
2.283967768824674,0.05251805811304253
2.286746318421784,0.042676906101520196
2.289524868018894,0.02981251065822564
2.2923034176160044,0.0013831586215088069
2.295081967213115,0.05244253851520836
2.2978605168102253,0.008604645491429537
2.3006390664073355,0.04099939949509288
2.3034176160044457,-0.017876840325530243
2.3061961656015564,-0.003295702978751266
2.3089747151986666,-0.054625864256174474
2.311753264795777,0.040596813935398414
2.314531814392887,0.012144162001434934
2.3173103639899972,-0.055893635263969434
2.320088913587108,0.02196303598267385
2.322867463184218,0.0002250770870410287
2.3256460127813283,0.0313707108078436
2.3284245623784385,-0.020101053969598867
2.3312031119755487,-0.006148029216395114
2.3339816615726594,-0.017944649017510538
2.3367602111697696,-0.006126942076585244
2.33953876076688,-0.05618957813908263
2.34231731036399,-0.028124129870823675
2.3450958599611007,-0.06373400280959989
2.347874409558211,0.0317354144381207
2.350652959155321,-0.06136294862153712
2.3534315087524313,-0.019766103352156447
2.3562100583495416,0.01755003918078227
2.358988607946652,-0.05801929380388644
2.3617671575437624,-0.02637396408445233
2.3645457071408726,-0.039622904408560644
2.367324256737983,0.0038550785673478884
2.370102806335093,-0.0628841204532385
2.3728813559322037,-0.06434074706419306
2.375659905529314,-0.01332291170725023
2.378438455126424,0.005396311614800535
2.3812170047235344,0.004844791820442787
2.3839955543206446,-0.055815694129050936
2.3867741039177552,-0.0913273477196297
2.3895526535148655,-0.07775995397463849
2.3923312031119757,0.04067539945411926
2.395109752709086,-0.052856400867147844
2.3978883023061965,-0.07407416837831982
2.4006668519033068,-0.020393263863318748
2.403445401500417,0.024156054117006488
2.406223951097527,0.057414894462332236
2.4090025006946374,-0.006824952699573187
2.411781050291748,-0.012680587249670928
2.4145595998888583,-0.004165695939355499
2.4173381494859685,-0.03406643193147956
2.4201166990830787,0.027070112831093212
2.422895248680189,-0.022170084099897038
2.4256737982772996,-0.00041644199162133147
2.42845234787441,-0.0016498971466096066
2.43123089747152,0.10504196374253896
2.43400944706863,-0.04185883880325243
2.436787996665741,-0.09138247654681357
2.439566546262851,0.012635938085136652
2.4423450958599613,0.09572304226926963
2.4451236454570715,0.07466394700342716
2.4479021950541817,-0.032438188904559115
2.4506807446512924,0.011003909712374036
2.4534592942484026,0.10313729186859404
2.456237843845513,-0.07169058756892824
2.459016393442623,-0.07594492380601633
2.4617949430397332,-0.03547417710349583
2.464573492636844,-0.02326453857605104
2.467352042233954,0.08398265569277462
2.4701305918310643,-0.017235614508139756
2.4729091414281745,0.0444580997281347
2.475687691025285,0.07443337755754041
2.4784662406223954,-0.007587337892669405
2.4812447902195056,0.007910779525322265
2.484023339816616,-0.029471567693763585
2.486801889413726,0.0028737376345102407
2.4895804390108367,0.0706984777586993
2.492358988607947,0.12781145741058614
2.495137538205057,0.017411549804090307
2.4979160878021673,0.1491389046892429
2.5006946373992776,0.1227959940582862
2.503473186996388,0.10554448129974311
2.5062517365934984,0.2543525096072129
2.5090302861906086,0.25481332433793397
2.511808835787719,0.1546516156388627
2.5145873853848295,0.29936338881249336
2.5173659349819397,0.25310571225770334
2.52014448457905,0.265273879193126
2.52292303417616,0.2033436080463482
2.5257015837732704,0.28264886510234977
2.528480133370381,0.2638033830775261
2.5312586829674912,0.22787384386997844
2.5340372325646014,0.172529563971623
2.5368157821617117,0.20394497617742394
2.539594331758822,0.21432482596890617
2.5423728813559325,0.09869809431383136
2.5451514309530427,0.06529746226511181
2.547929980550153,0.04204051374717567
2.550708530147263,-0.0027842279377558177
2.553487079744374,0.019628514457547944
2.556265629341484,-0.02242138098382155
2.5590441789385943,0.0004087663700882392
2.5618227285357045,0.12090557760759615
2.5646012781328147,0.16899601137956688
2.5673798277299253,0.2918594095738912
2.5701583773270356,0.5294140624394125
2.5729369269241458,0.9730802527966463
2.575715476521256,1.2694796548106486
2.578494026118366,1.5451389913479607
2.581272575715477,1.5018104462452444
2.584051125312587,1.326440407349251
2.5868296749096973,0.8280178975908088
2.5896082245068075,0.6083858414448355
2.592386774103918,0.22027155938470705
2.5951653237010284,0.2161625315993237
2.5979438732981386,0.08659431324761721
2.600722422895249,0.039664890121271765
2.603500972492359,-0.026384893299483167
2.6062795220894697,-0.024072836697013003
2.60905807168658,-0.014603498826104106
2.61183662128369,-0.04900093579485651
2.6146151708808003,-0.046523924430339536
2.6173937204779105,0.011810494191676806
2.620172270075021,-0.04885562412664923
2.6229508196721314,0.04674975555823904
2.6257293692692416,-0.03314760315869494
2.628507918866352,0.01094155695932382
2.6312864684634625,-0.021428595454485767
2.6340650180605727,0.021587841544162285
2.636843567657683,0.016012584281488967
2.639622117254793,0.07759404972700445
2.6424006668519033,0.03451230025394788
2.645179216449014,0.05546312372555196
2.647957766046124,-0.06690601658924276
2.6507363156432344,-0.04222138055198715
2.6535148652403446,-0.02442090314322843
2.656293414837455,-0.051136059099897116
2.6590719644345655,0.07066321149137474
2.6618505140316757,-0.01798010898659019
2.664629063628786,0.007946069732403731
2.667407613225896,-0.014270151856866956
2.670186162823007,-0.019032171280890686
2.672964712420117,0.01804046674349091
2.6757432620172272,0.08332014242118857
2.6785218116143374,-0.0017716332156235905
2.6813003612114477,-0.12181163741249564
2.6840789108085583,0.01459117453861255
2.6868574604056685,0.03762219382136496
2.6896360100027787,-0.04864391527047365
2.692414559599889,-0.05657665433999279
2.695193109196999,0.03985140856224639
2.69797165879411,0.029436510183711604
2.70075020839122,-0.018745059191843237
2.7035287579883303,-0.0019179498983771665
2.7063073075854405,0.06953046333637769
2.709085857182551,0.020013927961982793
2.7118644067796613,-0.0428235628487191
2.7146429563767716,0.13665114900592926
2.7174215059738818,0.018316921531381716
2.720200055570992,0.0641032469362206
2.7229786051681026,0.20828606179450687
2.725757154765213,0.18064005664606442
2.728535704362323,0.13723198911914802
2.7313142539594333,0.099975892832883
2.7340928035565435,0.22122707030420302
2.736871353153654,0.17601674931114697
2.7396499027507644,0.22161267939728055
2.7424284523478746,0.2104343721940871
2.745207001944985,0.24677888832049294
2.7479855515420955,0.270694762256453
2.7507641011392057,0.2660950042264
2.753542650736316,0.25155095710674197
2.756321200333426,0.3465855339368014
2.7590997499305363,0.26857904070569905
2.761878299527647,0.3735765904892394
2.764656849124757,0.30028640727447964
2.7674353987218674,0.36027146491790735
2.7702139483189776,0.25945377650517654
2.772992497916088,0.29495981931315324
2.7757710475131985,0.34390498377985756
2.7785495971103087,0.2696594487045568
2.781328146707419,0.22973705026134394
2.784106696304529,0.10788749357098704
2.7868852459016398,0.18683910269185158
2.78966379549875,0.17131858030657074
2.79244234509586,0.11348743287104814
2.7952208946929704,0.06564567929328327
2.7979994442900806,0.09285464681823366
2.8007779938871913,0.07861066731944141
2.8035565434843015,0.09231279527633973
2.8063350930814117,0.08078695634215546
2.809113642678522,0.0821479435655425
2.811892192275632,-0.036510465033744985
2.814670741872743,0.022585804469882113
2.817449291469853,0.10935595790017749
2.8202278410669632,0.0018425129225378579
2.8230063906640734,0.025740314803277937
2.825784940261184,0.027973547990339832
2.8285634898582943,0.03278142363338607
2.8313420394554045,0.013153640324114016
2.8341205890525147,-0.043538690114312106
2.836899138649625,-0.1263067599995057
2.8396776882467356,0.02931868433987401
2.842456237843846,-0.04802500219525553
2.845234787440956,0.11640888601839078
2.8480133370380663,-0.039157569937019
2.8507918866351765,-0.08477106877331872
2.853570436232287,-0.06317379031151289
2.8563489858293973,-0.08367122787232475
2.8591275354265075,-0.01591772919566441
2.8619060850236178,0.0312630652838407
2.864684634620728,-0.009897963024568347
2.8674631842178386,-0.03368889869647401
2.870241733814949,-0.024367561522070213
2.873020283412059,-0.11035344250459823
2.8757988330091693,-0.09425741667953853
2.87857738260628,0.050133444605521764
2.88135593220339,-0.05002492671399666
2.8841344818005004,-0.16242521914328895
2.8869130313976106,-0.011187998365646623
2.889691580994721,-0.04631272489106904
2.8924701305918314,0.01893337661126142
2.8952486801889417,-0.0675445498997127
2.898027229786052,-0.015566100171835445
2.900805779383162,-0.024975559626001162
2.9035843289802723,-0.09144358039012954
2.906362878577383,-0.014879898755383083
2.909141428174493,0.014720231388698437
2.9119199777716034,-0.004379379740450518
2.9146985273687136,0.045757364300472676
2.9174770769658243,0.059366161621472624
2.9202556265629345,0.004199506285813738
2.9230341761600447,-0.05914272178145393
2.925812725757155,-0.05309335206574467
2.928591275354265,-0.05536033556706317
2.9313698249513758,0.04433634573130638
2.934148374548486,0.06288504447920167
2.936926924145596,0.015467616634862272
2.9397054737427064,0.004529122264074304
2.9424840233398166,-0.0927184613021648
2.9452625729369273,0.008794084887359053
2.9480411225340375,0.015955329279695295
2.9508196721311477,0.012607128045238426
2.953598221728258,0.02863630739063688
2.9563767713253686,-0.04309857175406944
2.959155320922479,-0.027602729125685385
2.961933870519589,-0.08014028286494233
2.964712420116699,0.06456825333524537
2.9674909697138094,0.040367831447752606
2.97026951931092,0.02297408554730103
2.9730480689080303,-0.04525492085276701
2.9758266185051405,-0.06522516156554087
2.9786051681022507,-0.02165031052769348
2.981383717699361,-0.03580734803922185
2.9841622672964716,-0.032605807963278076
2.986940816893582,0.04107812884669354
2.989719366490692,-0.055751964398329114
2.9924979160878022,0.03407538050415759
2.995276465684913,0.021186578298054686
2.998055015282023,-0.07855213675148695
3.0008335648791333,0.06735276340919812
3.0036121144762435,0.08840760190635812
3.0063906640733538,0.09502606241450016
3.0091692136704644,-0.04137044851561408
3.0119477632675746,0.008217660127579785
3.014726312864685,0.023549321722531616
3.017504862461795,0.036647226888724155
3.0202834120589053,0.00028515894711138236
3.023061961656016,0.05654702578431822
3.025840511253126,-0.07017039752292627
3.0286190608502364,-0.10366477956152487
3.0313976104473466,-0.04854960930651701
3.0341761600444572,-0.03160919389669794
3.0369547096415674,0.0026771296219117386
3.0397332592386777,0.04658150955934625
3.042511808835788,0.0403058630458544
3.045290358432898,-0.009615707350758599
3.0480689080300087,0.012148434353173929
3.050847457627119,0.015593038401776994
3.053626007224229,-0.05985151931399866
3.0564045568213394,0.003686988694953309
3.0591831064184496,-0.07030153608029481
3.0619616560155603,-0.012186292965120925
3.0647402056126705,0.09546654243339321
3.0675187552097807,0.06996501048286051
3.070297304806891,0.031957329627117115
3.0730758544040016,-0.032740171045203235
3.0758544040011118,-0.096746441726887
3.078632953598222,-0.05959153295177706
3.081411503195332,0.04509055562216989
3.0841900527924424,-0.003604036165704771
3.086968602389553,-0.02101949149320418
3.0897471519866633,-0.010269003862587561
3.0925257015837735,0.03489882794379013
3.0953042511808837,0.009686324545271298
3.098082800777994,-0.02836075692535745
3.1008613503751046,0.07189469729399282
3.103639899972215,-0.06021727849418991
3.106418449569325,0.09456391583790022
3.109196999166435,-0.007888335161624726
3.111975548763546,0.035023433537538076
3.114754098360656,0.021310904681487268
3.1175326479577663,0.025909193454940305
3.1203111975548765,0.03169968173533757
3.1230897471519867,0.032298170390590956
3.1258682967490974,-0.007301904506354254
3.1286468463462076,0.03026548858726646
3.131425395943318,0.027697524864155318
3.134203945540428,-0.0205503316117522
3.1369824951375382,0.010460606440312228
3.139761044734649,0.05073958169557191
3.142539594331759,-0.07019617027212818
3.1453181439288693,0.007518169298941619
3.1480966935259795,0.046615453312349
3.15087524312309,-0.06733221299134357
3.1536537927202004,0.00264767411328113
3.1564323423173106,0.01294570078374745
3.159210891914421,0.07653432393737018
3.161989441511531,-0.048980465581538984
3.1647679911086417,-0.026780429449099565
3.167546540705752,-0.039031055633308234
3.170325090302862,0.05934398857285511
3.1731036398999724,0.010384024865662155
3.1758821894970826,0.01730809048041691
3.178660739094193,-0.0322316392278662
3.1814392886913034,-0.0021883699600831366
3.1842178382884136,-0.06640721591822397
3.186996387885524,0.02117399781200282
3.1897749374826345,-0.02095794984444398
3.1925534870797447,0.08374649603682005
3.195332036676855,-0.020646478260272487
3.198110586273965,-0.010293662615375955
3.2008891358710754,0.03573953538770842
3.203667685468186,0.025063268348561617
3.2064462350652962,0.013481745492645336
3.2092247846624065,0.01780951178598603
3.2120033342595167,0.01492163632367137
3.214781883856627,0.02470021780854711
3.2175604334537375,0.017239948742926735
3.2203389830508478,0.02829044650493511
3.223117532647958,-0.0617427800065484
3.225896082245068,0.10846817052849442
3.228674631842179,-0.02976671666632716
3.231453181439289,-0.009362729492048588
3.2342317310363993,0.03016349044846443
3.2370102806335095,-0.05634922646613214
3.2397888302306197,-0.06412632453494836
3.2425673798277304,0.006811055513388953
3.2453459294248406,-0.012769799716935445
3.248124479021951,0.0059856982130551675
3.250903028619061,0.03723053781962931
3.253681578216171,0.02420415201201599
3.256460127813282,0.06563811388216308
3.259238677410392,-0.09713964324559762
3.2620172270075023,0.01814532095216556
3.2647957766046125,0.012904652906743141
3.267574326201723,0.013441725702858388
3.2703528757988334,-9.332527706580997e-05
3.2731314253959436,-0.03523488864854672
3.275909974993054,-0.02229454428645169
3.278688524590164,0.0031241970811339836
3.2814670741872747,0.006392349629440738
3.284245623784385,-0.018802427354051025
3.287024173381495,0.035303352948047255
3.2898027229786053,0.04023322620484019
3.2925812725757155,0.028028417891150015
3.295359822172826,0.06953727753508299
3.2981383717699364,0.10666596408089138
3.3009169213670466,0.07570427623251322
3.303695470964157,0.17033122485368438
3.3064740205612675,0.18304582539754247
3.3092525701583777,0.12127692104866176
3.312031119755488,0.15037486538270045
3.314809669352598,0.25831734099705883
3.3175882189497083,0.3095214375615626
3.320366768546819,0.30511668074396914
3.323145318143929,0.3178527021190196
3.3259238677410394,0.3032394607535378
3.3287024173381496,0.20263479576696758
3.33148096693526,0.2397407775685787
3.3342595165323705,0.16683357123649295
3.3370380661294807,0.06049428562448582
3.339816615726591,0.05855981817633918
3.342595165323701,0.0855352433635554
3.3453737149208114,0.01734357267623371
3.348152264517922,0.034686737164981274
3.3509308141150322,0.030088926562125445
3.3537093637121425,0.029781504032993053
3.3564879133092527,0.02114953783908169
3.3592664629063633,0.07139372208139438
3.3620450125034735,0.14509975547821596
3.3648235621005838,0.20745528992205137
3.367602111697694,0.24331409748436367
3.370380661294804,0.6121873780378532
3.373159210891915,0.9404620394252005
3.375937760489025,1.2525859925621585
3.3787163100861353,1.5167605880178994
3.3814948596832455,1.480462524856414
3.3842734092803557,1.2649353977009887
3.3870519588774664,0.8813251670778934
3.3898305084745766,0.5415473433640606
3.392609058071687,0.29991080434938633
3.395387607668797,0.1338486141812786
3.3981661572659076,0.0532538427484771
3.400944706863018,-0.010829994484056193
3.403723256460128,0.05734972744706269
3.4065018060572383,0.06560939443932913
3.4092803556543485,-0.09074527054752103
3.412058905251459,0.007018916085421511
3.4148374548485694,-0.022191543663932597
3.4176160044456796,-0.07277160010185903
3.42039455404279,-0.01368835148248623
3.4231731036399,0.0023958516724749052
3.4259516532370107,0.06171599758101645
3.428730202834121,0.06855545276745148
3.431508752431231,0.09740782988668793
3.4342873020283413,0.025789517291720188
3.437065851625452,-0.0601162243945372
3.439844401222562,-0.013689936321456557
3.4426229508196724,-0.025096163744799484
3.4454015004167826,-0.06586587520353063
3.448180050013893,0.06492670716447566
3.4509585996110035,0.011863964500237441
3.4537371492081137,0.01328898160342032
3.456515698805224,-0.06075028441898589
3.459294248402334,0.057268261511816146
3.4620727979994443,0.0183938354468289
3.464851347596555,-0.06736712978484148
3.467629897193665,-0.011882501010479333
3.4704084467907754,0.03379602532762184
3.4731869963878856,0.05198606494236705
3.4759655459849963,0.07457024904576184
3.4787440955821065,-0.028706234753432557
3.4815226451792167,-0.07190138450640282
3.484301194776327,-0.0944244865706255
3.487079744373437,0.00941584749217813
3.489858293970548,-0.0018742160244409455
3.492636843567658,0.06090882917717228
3.4954153931647682,0.07975590079926606
3.4981939427618784,-0.013861169560403473
3.5009724923589887,0.046554589261493445
3.5037510419560993,0.06274249676978784
3.5065295915532095,0.07484210522692986
3.5093081411503197,0.05587878623752028
3.51208669074743,0.023055785157537
3.5148652403445406,-0.06041607125989228
3.517643789941651,0.07596537821456731
3.520422339538761,0.008413127860102954
3.5232008891358713,0.06239521238296827
3.5259794387329815,-0.010383286918070805
3.528757988330092,0.13904928177560208
3.5315365379272023,0.22050410470261544
3.5343150875243126,0.13035334154568257
3.5370936371214228,0.3326183008683827
3.539872186718533,0.2911174816665302
3.5426507363156436,0.3439402059681192
3.545429285912754,0.2551091721288414
3.548207835509864,0.3086223655981262
3.5509863851069743,0.254329524868629
3.553764934704085,0.3424722651834845
3.556543484301195,0.40251509624806486
3.5593220338983054,0.3606840297802202
3.5621005834954156,0.3152509380972224
3.564879133092526,0.32285041957993876
3.5676576826896365,0.39052752987248157
3.5704362322867467,0.30132684334359006
3.573214781883857,0.298703288292433
3.575993331480967,0.29970196440013214
3.5787718810780773,0.24453622044747156
3.581550430675188,0.23981759555704907
3.584328980272298,0.19474847656204813
3.5871075298694084,0.1063182269352464
3.5898860794665186,0.17926570060965988
3.5926646290636293,0.08794695117891696
3.5954431786607395,0.024379130999592172
3.5982217282578497,0.12155981806688392
3.60100027785496,0.0070302263774025125
3.60377882745207,0.03151061522987508
3.606557377049181,0.13744001859899052
3.609335926646291,0.07963352186402467
3.612114476243401,0.19254674575146805
3.6148930258405114,0.02245052760077667
3.6176715754376216,-0.0006282225972480664
3.6204501250347323,0.02239177842245093
3.6232286746318425,0.0290360036249466
3.6260072242289527,-0.09138889430876673
3.628785773826063,-0.00949616614238821
3.6315643234231736,0.04928221503283184
3.634342873020284,-0.01319111176869773
3.637121422617394,0.005679658188900305
3.6398999722145042,-0.040352869068522756
3.6426785218116144,0.0004338250110607446
3.645457071408725,0.06723410439931786
3.6482356210058353,-0.007332449790939538
3.6510141706029455,-0.036549256549828865
3.6537927202000557,-0.08747598858652775
3.656571269797166,0.023703493576226514
3.6593498193942766,-0.08649822543157151
3.662128368991387,0.031294169616835926
3.664906918588497,0.01690440929154918
3.6676854681856073,0.002390094131483222
3.670464017782718,0.06439031014376115
3.673242567379828,-0.04856490724618082
3.6760211169769383,-0.038961631398579125
3.6787996665740486,0.010704132842524921
3.6815782161711588,-0.09706666216085497
3.6843567657682694,-0.020228327982940816
3.6871353153653796,0.003207445982937354
3.68991386496249,0.003302052267876124
3.6926924145596,-0.001216269358929184
3.6954709641567103,-0.12478250829882064
3.698249513753821,0.10814643414585796
3.701028063350931,0.07549074599190274
3.7038066129480414,0.08337589847304529
3.7065851625451516,0.04760772662192028
3.7093637121422622,0.01536383887497257
3.7121422617393725,0.07416350220924113
3.7149208113364827,-0.03435187910936741
3.717699360933593,-0.010016031920149856
3.720477910530703,-0.030661217983806055
3.7232564601278137,0.0593110695758849
3.726035009724924,0.08185569043380361
3.728813559322034,0.005549481312942223
3.7315921089191444,0.05395961916756659
3.7343706585162546,0.07706155324301701
3.7371492081133653,0.05676849287170125
3.7399277577104755,-0.03822056969647389
3.7427063073075857,0.014574024000903683
3.745484856904696,0.022864866959653507
3.7482634065018066,0.05460316162998902
3.7510419560989168,-0.012962947220142861
3.753820505696027,0.06595971380002406
3.756599055293137,-0.035298698116259256
3.7593776048902474,0.004373930782798176
3.762156154487358,-0.13604575174062394
3.7649347040844683,-0.02745594960057714
3.7677132536815785,-0.01976244168312194
3.7704918032786887,-0.005079579268418825
3.773270352875799,-0.05332023149224782
3.7760489024729096,0.02145611480634765
3.77882745207002,-0.017518075545236416
3.78160600166713,-0.035364759248302444
3.7843845512642402,0.03876707044348958
3.787163100861351,0.0005337709854191136
3.789941650458461,0.04913065234198026
3.7927202000555713,0.03667535903269339
3.7954987496526815,0.00669724626815332
3.7982772992497917,0.004705401283082062
3.8010558488469024,-0.06845334627683873
3.8038343984440126,0.023963092747597257
3.806612948041123,0.013565607012059111
3.809391497638233,0.08201442009326937
3.8121700472353433,0.04331776154161823
3.814948596832454,0.013109556376240564
3.817727146429564,0.0032230501534382277
3.8205056960266743,0.09127358963352755
3.8232842456237845,-0.026202499946710985
3.8260627952208948,0.03411314678681221
3.8288413448180054,0.05734492248006884
3.8316198944151156,0.0003456064670391051
3.834398444012226,-0.07655553753209335
3.837176993609336,-0.05616788258065219
3.8399555432064467,0.06237119168673399
3.842734092803557,0.018947737114141515
3.845512642400667,0.06432009532210194
3.8482911919977774,0.0021219220208563423
3.8510697415948876,0.03127558720507614
3.8538482911919982,0.0947989742285536
3.8566268407891084,0.03267034928044523
3.8594053903862187,-0.0344579423103593
3.862183939983329,-0.0354121015483006
3.864962489580439,-0.01514212094391374
3.8677410391775497,0.007675393017736775
3.87051958877466,-0.010191195696915845
3.87329813837177,0.0003860058492705624
3.8760766879688804,0.03697183842102523
3.878855237565991,0.010484355905767946
3.8816337871631013,-0.01015536543329365
3.8844123367602115,0.03904426218513767
3.8871908863573217,-0.051345638119132286
3.889969435954432,-0.022951512132491074
3.8927479855515426,0.013871796014737679
3.8955265351486528,-0.05575634871403025
3.898305084745763,-0.0004047220939726413
3.901083634342873,0.15377538074041483
3.9038621839399834,0.06084396325662858
3.906640733537094,-0.015371356929938724
3.9094192831342043,0.06703294619449529
3.9121978327313145,-0.038645583362579256
3.9149763823284247,-0.06581978047180152
3.9177549319255354,0.04627516553956581
3.9205334815226456,-0.042200956816049684
3.923312031119756,-0.026543023443950715
3.926090580716866,-0.06490378922754132
3.928869130313976,-0.045951712190489345
3.931647679911087,0.013829483566544768
3.934426229508197,0.053749134939991144
3.9372047791053073,0.003908378739333372
3.9399833287024175,-0.029871813853227187
3.9427618782995277,-0.003863110859022488
3.9455404278966384,0.02163448659479655
3.9483189774937486,-0.013151529302024872
3.951097527090859,0.05639932395002089
3.953876076687969,0.04695634399096769
3.9566546262850797,-0.05560577259261799
3.95943317588219,-0.018924317313176522
3.9622117254793,0.010529363366730141
3.9649902750764103,0.09999116547541226
3.9677688246735205,0.028689543390949524
3.970547374270631,0.06073323596786247
3.9733259238677414,-0.017054256378454934
3.9761044734648516,0.02043502395744444
3.978883023061962,0.042739578809008784
3.981661572659072,0.0335240384694781
3.9844401222561827,-0.004639815565807398
3.987218671853293,0.028355236734348623
3.989997221450403,-0.004491874253706695
3.9927757710475134,-0.02326784547474277
3.995554320644624,-0.002889035456158761
3.9983328702417342,-0.0209942671446021
4.001111419838844,0.10646763938150586
4.003889969435955,-0.0389851159644898
4.006668519033065,-0.01167193362206883
4.009447068630175,-0.0775922861215548
4.012225618227285,0.03679311239729182
4.015004167824396,0.06804628180531465
4.017782717421507,0.0037060857427728758
4.020561267018617,-0.023161051408891367
4.023339816615727,0.05204867205024873
4.026118366212837,0.055501354577187016
4.0288969158099475,0.10348047776455929
4.031675465407058,0.03941409203474489
4.034454015004168,-0.03420897843218656
4.037232564601278,0.029439706844428083
4.040011114198388,0.031209018251206422
4.042789663795499,-0.034723315256559334
4.04556821339261,-0.02274306468741331
4.04834676298972,0.042545831533747254
4.05112531258683,0.023323134866270582
4.05390386218394,-0.05563556218850685
4.0566824117810505,-3.043228266841848e-05
4.059460961378161,0.022840185799678846
4.062239510975271,-0.039651334900586366
4.065018060572381,0.13796297087465953
4.067796610169492,0.03041656840704215
4.0705751597666024,-0.0019690450334559767
4.073353709363713,0.002525114814224824
4.076132258960823,0.04127808555224542
4.078910808557933,0.048999852877513024
4.081689358155043,-0.05343715102675765
4.0844679077521535,-0.063299889286995
4.087246457349264,-0.020265974726891837
4.090025006946374,0.02212548531311874
4.092803556543485,0.013253420462285288
4.095582106140595,0.02745695194860609
4.0983606557377055,0.012455974052088273
4.101139205334816,0.16960421512044455
4.103917754931926,0.2097057407873972
4.106696304529036,0.16765309687217878
4.109474854126146,0.2510718302677476
4.1122534037232565,0.23387187213701804
4.115031953320367,0.25985107265956636
4.117810502917477,0.2688134505325488
4.120589052514588,0.2283756948898089
4.123367602111698,0.2035103646185203
4.1261461517088085,0.34332385479863026
4.128924701305919,0.15502972411682656
4.131703250903029,0.23118445686622496
4.134481800500139,0.1671577483310618
4.137260350097249,0.17529640397595914
4.14003889969436,0.13420387621973806
4.14281744929147,0.07395682871547651
4.145595998888581,0.08597024793635849
4.148374548485691,0.06950127634135331
4.151153098082801,0.01623933885261643
4.1539316476799115,0.06285980009703322
4.156710197277022,-0.07613654698069677
4.159488746874132,0.01796234128631103
4.162267296471242,0.060291094743331414
4.165045846068352,0.211922213630028
4.167824395665463,0.32953121156050885
4.170602945262574,0.5797154615904082
4.173381494859684,1.0059027496469575
4.176160044456794,1.200513227262442
4.178938594053904,1.4560846623975239
4.1817171436510145,1.4177347104345694
4.184495693248125,1.242105257274938
4.187274242845235,0.9317941842678228
4.190052792442345,0.6203419557860186
4.192831342039455,0.24071784293755316
4.195609891636566,0.13289187390925264
4.198388441233677,0.08620370156432347
4.201166990830787,0.044957990646185136
4.203945540427897,0.08136742572404618
4.206724090025007,0.05908363234394474
4.209502639622118,0.04015493817112623
4.212281189219228,-0.0040954726737081
4.215059738816338,-0.010145287801885753
4.217838288413448,0.059209613929204326
4.220616838010558,0.018863959389992566
4.2233953876076695,0.06156002578576262
4.22617393720478,0.06989604963962293
4.22895248680189,-0.07067607383046269
4.231731036399,-0.0027868413244013586
4.23450958599611,0.1250669161611462
4.237288135593221,0.03180037618737028
4.240066685190331,0.035783450819742664
4.242845234787441,0.043016173258883565
4.245623784384551,0.031343408746409646
4.248402333981662,-0.11965569643251571
4.2511808835787726,-0.11669932421566642
4.253959433175883,0.0010449331798230036
4.256737982772993,-0.04328285094377848
4.259516532370103,-0.011651943897555557
4.262295081967213,0.04840252673138291
4.265073631564324,-0.03926450390048222
4.267852181161434,-0.01576733792000444
4.270630730758544,0.03441471187782488
4.273409280355654,0.010470819280824847
4.276187829952765,0.028946637517561474
4.278966379549876,0.02909935085777572
4.281744929146986,-0.03720941885012737
4.284523478744096,0.027497880146089674
4.287302028341206,-0.006660729217141581
4.290080577938316,-0.010381443203633716
4.292859127535427,-0.0653712875099462
4.295637677132537,-0.060224446654679915
4.298416226729647,-0.07173574203964135
4.301194776326758,0.011305143862474193
4.303973325923868,0.06750477862364326
4.306751875520979,0.151677229609034
4.309530425118089,0.12588422606037813
4.312308974715199,0.03675098740064628
4.315087524312309,0.051991833846734906
4.3178660739094195,0.058264818604181104
4.32064462350653,0.17608276568735542
4.32342317310364,0.11262389359715484
4.32620172270075,0.135435039711911
4.328980272297861,0.12290564699683622
4.331758821894971,0.12269021633055037
4.334537371492082,0.3239767324487422
4.337315921089192,0.16208566586006906
4.340094470686302,0.2675127532130189
4.342873020283412,0.27434760502042427
4.3456515698805225,0.3120789578234995
4.348430119477633,0.23626127197816751
4.351208669074743,0.45335520834543697
4.353987218671854,0.31324283724030655
4.356765768268964,0.3269763321217417
4.359544317866074,0.35928764644018585
4.362322867463185,0.2635314697130333
4.365101417060295,0.3698413952453889
4.367879966657405,0.2875072143638617
4.370658516254515,0.3493223422963831
4.3734370658516255,0.33707063831554274
4.376215615448736,0.35306089834343907
4.378994165045847,0.20662730225625806
4.381772714642957,0.2557876983854119
4.384551264240067,0.13776324181731286
4.3873298138371775,0.156362649534558
4.390108363434288,0.18345917417649282
4.392886913031398,0.12061224642396996
4.395665462628508,0.10809117981501197
4.398444012225618,0.08385297358812877
4.4012225618227285,0.02398185294189451
4.404001111419839,0.08408559543947684
4.40677966101695,0.0005579111292037114
4.40955821061406,0.01804711485544727
4.41233676021117,0.013719595723453168
4.4151153098082805,-0.0017309784454868186
4.417893859405391,-0.031085409708938475
4.420672409002501,0.09210311496601695
4.423450958599611,-0.015390796239773408
4.426229508196721,0.0633435706640227
4.4290080577938316,0.08641030992399842
4.431786607390943,-0.009486868050769363
4.434565156988053,0.026068375985855246
4.437343706585163,-0.0041431257764567775
4.440122256182273,-0.005616148646734615
4.4429008057793835,0.10028308795779432
4.445679355376494,-0.036154453423148714
4.448457904973604,0.09573404263025562
4.451236454570714,-0.10127902799719087
4.454015004167824,-0.008203138578578656
4.4567935537649355,-0.001282841413731016
4.459572103362046,-0.021644413131288905
4.462350652959156,0.07581256384477658
4.465129202556266,-0.09950052867225323
4.467907752153376,0.005864048782430958
4.4706863017504865,-0.11305084057955934
4.473464851347597,-0.07854195247320496
4.476243400944707,0.03140512838456987
4.479021950541817,0.04888477581561111
4.481800500138927,0.07818223009907135
4.4845790497360385,0.0069160603146698335
4.487357599333149,0.0396324090815142
4.490136148930259,-0.0521783903955498
4.492914698527369,-0.0025069902276356835
4.495693248124479,0.04927077823923934
4.49847179772159,-0.09365820948768123
4.5012503473187,-0.011560254557703703
4.50402889691581,-0.06510484824259893
4.50680744651292,0.05959472136281104
4.509585996110031,0.061928260832629756
4.5123645457071415,-0.0504908623496476
4.515143095304252,-0.07439483316574286
4.517921644901362,-0.03546115921036617
4.520700194498472,0.00902343239592499
4.523478744095582,-0.021646501507385695
4.526257293692693,0.026888238732009673
4.529035843289803,-0.018877350761050498
4.531814392886913,0.04831856449530671
4.534592942484024,0.03909820756709694
4.537371492081134,-0.03239950012805289
4.5401500416782445,-0.05884698561197334
4.542928591275355,-0.015514142141552296
4.545707140872465,0.03449933647434601
4.548485690469575,0.006962895280149907
4.551264240066685,0.04765694583526949
4.554042789663796,-0.006515995769025911
4.556821339260906,0.1188875437837008
4.559599888858016,0.02754419299471959
4.562378438455127,0.05320320410878482
4.565156988052237,0.013369428764253616
4.567935537649348,0.011131308083244383
4.570714087246458,-0.034048317868853165
4.573492636843568,-0.06658967265568157
4.576271186440678,-0.0874570395445417
4.579049736037788,-0.004003800787330352
4.581828285634899,0.031787423335539376
4.584606835232009,0.02806473742171068
4.58738538482912,0.01792685401459759
4.59016393442623,-0.014507156552371572
4.59294248402334,-0.013407242846686127
4.595721033620451,0.07211959222251821
4.598499583217561,-0.0019490255565401224
4.601278132814671,-0.005560236813553272
4.604056682411781,0.07355359559352277
4.6068352320088914,-0.01075579728223213
4.609613781606002,0.03610446724394751
4.612392331203113,-0.031163833495468713
4.615170880800223,0.024752952653064316
4.617949430397333,-0.049995126923353096
4.620727979994443,-0.11782367451061182
4.623506529591554,-0.04454605665786489
4.626285079188664,0.06972297516128849
4.629063628785774,3.723527862910085e-05
4.631842178382884,-0.019260011099411473
4.6346207279799945,0.034509456176411143
4.637399277577105,-0.0619751346577661
4.640177827174216,-0.04792830670264629
4.642956376771326,0.020448132081620805
4.645734926368436,0.01497858849841864
4.648513475965546,0.018160438175553652
4.651292025562657,0.036944367547019484
4.654070575159767,-0.02612456183107306
4.656849124756877,-0.04598737139974295
4.659627674353987,0.09555904184803389
4.6624062239510975,0.06989484377043916
4.665184773548209,-0.03527963070865751
4.667963323145319,0.03148411632328118
4.670741872742429,-0.002483194411363773
4.673520422339539,-0.02720906992550677
4.6762989719366495,-0.01252918567517402
4.67907752153376,0.014226460068239716
4.68185607113087,0.05864919447239382
4.68463462072798,0.020351735118865698
4.68741317032509,-0.0045027057787295904
4.690191719922201,-0.09277547436518441
4.692970269519312,-0.06509008040682233
4.695748819116422,-0.07391403848891802
4.698527368713532,-0.042065539627576004
4.701305918310642,-0.032358605783421625
4.7040844679077525,-0.01466237404289619
4.706863017504863,0.014808227013665243
4.709641567101973,-0.03881540267791725
4.712420116699083,-0.04053861267109491
4.715198666296193,-0.048203030772150074
4.717977215893304,-0.09726128446211674
4.720755765490415,-0.00490233983701069
4.723534315087525,-0.08158035666486789
4.726312864684635,0.08735553860625633
4.729091414281745,-0.08877411538354912
4.7318699638788555,-0.04039718328635211
4.734648513475966,0.05627451098150243
4.737427063073076,0.007047239038470986
4.740205612670186,0.009302406117051003
4.742984162267297,-0.013014435241777412
4.7457627118644075,-0.023450090072405633
4.748541261461518,-0.09109807740695819
4.751319811058628,0.009380930839325913
4.754098360655738,0.050261773209401554
4.756876910252848,-0.01830586034363551
4.7596554598499585,0.034434722959330866
4.762434009447069,0.02418495785458619
4.765212559044179,-0.0159227189239373
4.767991108641289,0.00992497118707257
4.7707696582384,-0.003761788252555926
4.7735482078355105,-0.04024892348696699
4.776326757432621,-0.02349719524376473
4.779105307029731,-0.015286057193785778
4.781883856626841,-0.09871614359155913
4.784662406223951,0.0311452299732083
4.7874409558210616,0.03287167078784683
4.790219505418172,-0.02528011658656025
4.792998055015282,0.026256607893653007
4.795776604612393,0.005203026083250145
4.798555154209503,0.12093787925035968
4.8013337038066135,-0.04870703180730062
4.804112253403724,0.003112353770090237
4.806890803000834,0.05019649214711839
4.809669352597944,0.02437796945061191
4.812447902195054,0.027169897229294946
4.815226451792165,0.035489671011834346
4.818005001389275,-0.01578357958783107
4.820783550986386,0.053821794387860465
4.823562100583496,0.007610867215481009
4.826340650180606,0.003951260361867528
4.8291191997777165,-0.007562923941622686
4.831897749374827,-0.02583668613086672
4.834676298971937,0.05382330648047266
4.837454848569047,0.025571027808081747
4.840233398166157,0.011202331606236238
4.843011947763268,0.03614695696054577
4.845790497360378,-0.05037140647705604
4.848569046957489,0.0812865964880514
4.851347596554599,0.012468171729026303
4.854126146151709,-0.001190264790234916
4.85690469574882,0.04465850424913638
4.85968324534593,-0.018371749776341807
4.86246179494304,0.021797656873491677
4.86524034454015,-0.00411748902164249
4.86801889413726,0.022828534282354002
4.870797443734371,-0.02070339561825818
4.873575993331482,-0.022560295153190045
4.876354542928592,0.034295052245813286
4.879133092525702,-0.10233482826244597
4.881911642122812,-0.011020763928417656
4.884690191719923,0.014477768491772314
4.887468741317033,0.02794105611300316
4.890247290914143,0.1214596440003313
4.893025840511253,0.08980252231140674
4.895804390108363,0.031369074960243874
4.8985829397054745,0.1418550229684536
4.901361489302585,0.11378402439418317
4.904140038899695,0.06205594059923959
4.906918588496805,0.0314553633344507
4.909697138093915,0.20596197473662212
4.912475687691026,0.24165559365645795
4.915254237288136,0.26954131726731634
4.918032786885246,0.21826377186857993
4.920811336482356,0.2128903890054074
4.9235898860794665,0.17272945000854306
4.926368435676578,0.27106018708470536
4.929146985273688,0.2873536047628412
4.931925534870798,0.22040451639467554
4.934704084467908,0.2185480383795202
4.937482634065018,0.12815472904647066
4.940261183662129,-0.025125644998213736
4.943039733259239,0.1592466445975793
4.945818282856349,0.11529047060762718
4.948596832453459,0.010807079510329477
4.95137538205057,0.07885273065834084
4.954153931647681,-0.019021589605561027
4.956932481244791,0.03902035149776275
4.959711030841901,0.030502191876161447
4.962489580439011,0.10829331715218907
4.965268130036121,0.19237220558692608
4.968046679633232,0.2821672732613625
4.970825229230342,0.6892397816791278
4.973603778827452,1.0267715208330068
4.976382328424563,1.3299081020472763
4.979160878021673,1.4947061432179227
4.981939427618784,1.3717269480827377
4.984717977215894,1.2005801687171431
4.987496526813004,0.8770609000727876
4.990275076410114,0.5311034830100103
4.9930536260072245,0.23983815289162258
4.995832175604335,-0.02133977609694701
4.998610725201445,0.04713292226976074
5.001389274798555,0.07872739363466424
5.004167824395666,-0.01873982144607463
5.006946373992776,-0.046038445788503204
5.009724923589887,-0.0578472276249217
5.012503473186997,-0.018416474556880544
5.015282022784107,0.0005981332984999583
5.018060572381217,0.0023486471657826746
5.0208391219783275,0.029203837029963025
5.023617671575438,0.06539877715129529
5.026396221172548,-0.09459588619960219
5.029174770769659,-0.045308873291779565
5.031953320366769,-0.06884141991577329
5.0347318699638794,0.02685801664337197
5.03751041956099,0.018982691649091485
5.0402889691581,-0.06702038468146344
5.04306751875521,-0.06885077861552878
5.04584606835232,-0.0217151264746941
5.0486246179494305,0.040297257200664675
5.051403167546541,0.08007295307956244
5.054181717143652,0.05115001733367815
5.056960266740762,0.021578138400036775
5.059738816337872,-0.06881677390413105
5.0625173659349825,-0.022403538370128463
5.065295915532093,-0.050893930053495594
5.068074465129203,-0.0500392422800316
5.070853014726313,0.03506377207506859
5.073631564323423,-0.03616574953940352
5.0764101139205335,-0.03685246679320429
5.079188663517644,-0.04450703206630663
5.081967213114755,-0.03206807189310855
5.084745762711865,0.06997778485218688
5.087524312308975,0.0022900346599555718
5.0903028619060855,0.015564756249433022
5.093081411503196,0.008445096654807256
5.095859961100306,-0.012015723767457524
5.098638510697416,0.032249201890107854
5.101417060294526,0.053060149656024964
5.104195609891637,0.13165633368200844
5.106974159488748,-0.019732286405008112
5.109752709085858,-0.0012448240706040108
5.112531258682968,0.03286941693286237
5.115309808280078,0.04349286753392681
5.1180883578771885,0.03673268115946729
5.120866907474299,0.08042724803014559
5.123645457071409,0.14581094590717222
5.126424006668519,0.09682669314445104
5.129202556265629,0.06401921815629356
5.1319811058627405,0.16828830574777423
5.134759655459851,0.191379272523581
5.137538205056961,0.13809144179094057
5.140316754654071,0.23730233193077396
5.143095304251181,0.26914972982573876
5.1458738538482915,0.21867079918105137
5.148652403445402,0.32397310243662064
5.151430953042512,0.28451498112137685
5.154209502639622,0.29708324397212144
5.156988052236732,0.39954458114486013
5.1597666018338435,0.3770218232959299
5.162545151430954,0.3354699310504077
5.165323701028064,0.32423710954006546
5.168102250625174,0.40640972163473776
5.170880800222284,0.2700573321212597
5.173659349819395,0.24994688524440767
5.176437899416505,0.2817781440813219
5.179216449013615,0.3119002347952625
5.181994998610725,0.1433984729489789
5.184773548207836,0.1905217604340531
5.1875520978049465,0.24593353201807028
5.190330647402057,0.14200952827790156
5.193109196999167,0.09204717606695895
5.195887746596277,0.08419394866306727
5.198666296193387,0.0021066460804471387
5.201444845790498,0.12096243162388542
5.204223395387608,0.057312650386712516
5.207001944984718,0.02510590990762651
5.209780494581829,-0.0007005872371429883
5.212559044178939,0.029313654126464087
5.2153375937760496,2.6719821931982246e-05
5.21811614337316,-0.019403376925900488
5.22089469297027,0.00311262477143562
5.22367324256738,0.03343527676680502
5.22645179216449,-0.028142335987681975
5.229230341761601,0.0026216555433314927
5.232008891358711,-0.018165074187463777
5.234787440955821,0.011408917180813319
5.237565990552932,-0.04991395658421874
5.240344540150042,0.06092866467977076
5.243123089747153,-0.12285766090178729
5.245901639344263,0.04011138916144413
5.248680188941373,-0.022921093368405355
5.251458738538483,-0.072120216796697
5.254237288135593,0.0944837068179118
5.257015837732704,0.0022502947373641198
5.259794387329814,0.06955824883496216
5.262572936926925,-0.004638339668270069
5.265351486524035,0.03294847564716862
5.268130036121145,-0.033701159908288245
5.270908585718256,0.03850420926088962
5.273687135315366,-0.06992285791997115
5.276465684912476,0.09425853561513373
5.279244234509586,-0.02304739270217304
5.2820227841066965,-0.02304722294071077
5.284801333703807,-0.12491238597205032
5.287579883300917,0.01142850118074158
5.290358432898028,0.02611246351074327
5.293136982495138,-0.010843536304222775
5.295915532092248,-0.03821879777363268
5.298694081689359,0.06666748210283975
5.301472631286469,-0.060234352567440544
5.304251180883579,0.00213681364897893
5.307029730480689,-0.03073195281342569
5.3098082800777995,0.00770147237704611
5.31258682967491,0.004253767460483091
5.315365379272021,-0.019249541263749143
5.318143928869131,-0.054998282637045
5.320922478466241,0.06811543864955429
5.323701028063351,0.05534704644024118
5.326479577660462,-0.013961427715669337
5.329258127257572,-0.024753700719931323
5.332036676854682,0.12921888813280427
5.334815226451792,-0.004371690348007652
5.3375937760489025,-0.026234229149596788
5.340372325646014,0.041142354648663046
5.343150875243124,-0.0034216473400120943
5.345929424840234,0.07288539736281059
5.348707974437344,-0.0012024538346422542
5.3514865240344545,-0.010420177487354994
5.354265073631565,0.038145833499209275
5.357043623228675,0.01823175786956595
5.359822172825785,-0.028151932793055785
5.362600722422895,0.022613073241085385
5.3653792720200055,0.12263338229582706
5.368157821617117,0.03786552617536572
5.370936371214227,0.0464709331297736
5.373714920811337,-0.0036209600767384675
5.376493470408447,0.0260478279917949
5.3792720200055575,0.0017003202213224295
5.382050569602668,0.017474324484660884
5.384829119199778,-0.05661951646927679
5.387607668796888,-0.14639027308720334
5.390386218393998,-0.11351948123293308
5.393164767991109,0.00639616797744667
5.39594331758822,0.002218338944306081
5.39872186718533,0.04348195591802436
5.40150041678244,0.0450186837165136
5.40427896637955,-0.033658403665158064
5.4070575159766605,-0.010380627240025812
5.409836065573771,0.062124381682291535
5.412614615170881,0.10475928306939844
5.415393164767991,-0.008958934529099424
5.418171714365102,0.03042516975060891
5.4209502639622125,0.0445988483802926
5.423728813559323,-0.05205516262052129
5.426507363156433,-0.016946804900978978
5.429285912753543,0.0011611443918219126
5.432064462350653,0.04475934117570618
5.4348430119477635,0.004095527730484982
5.437621561544874,-0.04205228087802113
5.440400111141984,0.007151340634522977
5.443178660739094,0.08200725880273321
5.445957210336205,-0.04198609808053632
5.4487357599333155,0.005232824767152107
5.451514309530426,-0.030859801226125895
5.454292859127536,-0.07176979809896071
5.457071408724646,-0.11643094734173348
5.459849958321756,-0.12534422466260164
5.462628507918867,0.03416336508904976
5.465407057515977,0.07844900491920537
5.468185607113087,0.06044604009293343
5.470964156710198,0.021964766157146678
5.473742706307308,0.02850745151164535
5.4765212559044185,-0.02558743300412813
5.479299805501529,-0.03639479908143164
5.482078355098639,-0.06838606575888528
5.484856904695749,-0.03871862605591322
5.487635454292859,-0.00911003759255709
5.49041400388997,-0.016640820335767584
5.49319255348708,0.006146684650696812
5.495971103084191,-0.04353350539491546
5.498749652681301,0.060695461553155056
5.501528202278411,0.06581570643508447
5.5043067518755215,-0.09177634924297247
5.507085301472632,-0.0019224668648942214
5.509863851069742,-0.12856919445155807
5.512642400666852,0.0568838465379123
5.515420950263962,0.0327963714850257
5.518199499861073,0.0339432645805426
5.520978049458183,0.07482483105074485
5.523756599055294,0.08633317411520577
5.526535148652404,-0.012673712051247824
5.529313698249514,-0.0054736197459865875
5.532092247846625,-0.03953928423621542
5.534870797443735,0.032300019432739795
5.537649347040845,-0.003940348987058031
5.540427896637955,0.021201498870041916
5.543206446235065,-0.05098110595118617
5.545984995832176,-0.02560200625130865
5.548763545429287,0.00656073872194302
5.551542095026397,0.07025453429370097
5.554320644623507,-0.061037442629519156
5.557099194220617,-0.021129951425058885
5.559877743817728,-0.07261212715620449
5.562656293414838,0.046276160255081064
5.565434843011948,-0.03014656494241083
5.568213392609058,-0.04317423217454355
5.5709919422061684,0.024163010416723307
5.5737704918032795,0.0038959935045262983
5.57654904140039,0.05294605187311964
5.5793275909975,0.03933824948837511
5.58210614059461,0.0074954573529975406
5.58488469019172,0.03341442090677246
5.587663239788831,0.06996541273875642
5.590441789385941,-0.05330552247800195
5.593220338983051,0.0013130920892010342
5.595998888580161,0.026928667193163218
5.5987774381772715,-0.12093748911125594
5.601555987774383,0.10193386316497105
5.604334537371493,-0.09620175898833572
5.607113086968603,-0.06151908843418939
5.609891636565713,-0.02364040417225636
5.612670186162823,0.023989005144413336
5.615448735759934,-0.013912736003014533
5.618227285357044,-0.003082118778427351
5.621005834954154,-0.012319029190326413
5.623784384551264,-0.02034695097639631
5.626562934148375,-0.02465577880776667
5.629341483745486,-0.02370999172554434
5.632120033342596,-0.028846763293656708
5.634898582939706,-0.052902078930501424
5.637677132536816,0.02520480447014538
5.6404556821339265,0.04794927986868809
5.643234231731037,-0.005779587919414024
5.646012781328147,-0.0008010242682656719
5.648791330925257,-0.09502130949063217
5.651569880522368,-0.08009793505958925
5.654348430119478,-0.0749160413436093
5.657126979716589,0.03337464957644999
5.659905529313699,0.05062371272389953
5.662684078910809,-0.003851549325152336
5.665462628507919,-0.021496952293137674
5.6682411781050295,0.10019916811388947
5.67101972770214,0.11212487666779598
5.67379827729925,0.06066950938084476
5.67657682689636,0.04473362050680415
5.679355376493471,0.03985623826632531
5.682133926090581,0.08203893879917315
5.684912475687692,-0.030923199706277996
5.687691025284802,0.059941094073739695
5.690469574881912,0.08190533356391952
5.693248124479022,0.05856417906289942
5.6960266740761325,0.028619955862611235
5.698805223673243,0.10672736811238574
5.701583773270353,0.11063738379780354
5.704362322867464,0.1529259658210484
5.707140872464574,0.26476780925728277
5.7099194220616845,0.21486542881648038
5.712697971658795,0.2985328937273163
5.715476521255905,0.24466187196619374
5.718255070853015,0.23573163380855
5.721033620450125,0.3486385838307339
5.7238121700472355,0.2517571552371107
5.726590719644346,0.25931161540945785
5.729369269241456,0.2396831612121422
5.732147818838567,0.20835590215714625
5.734926368435677,0.16105330761052028
5.7377049180327875,0.13700138655569327
5.740483467629898,0.006901618521584996
5.743262017227008,0.06533837424705785
5.746040566824118,0.0452536572430343
5.748819116421228,-0.022528967728295914
5.7515976660183386,0.021002789273543744
5.754376215615449,0.13423466511981585
5.75715476521256,-0.014459399366791734
5.75993331480967,0.0746844036100334
5.76271186440678,0.06817827239010421
5.7654904140038905,0.18961535942742472
5.768268963601001,0.4304052929296489
5.771047513198111,0.6573195305408183
5.773826062795221,1.0279801818808167
5.776604612392331,1.3212010510285381
5.779383161989442,1.4579650146194258
5.782161711586553,1.3583821110721646
5.784940261183663,1.1251761160248477
5.787718810780773,0.8866626419243315
5.790497360377883,0.4158572072357387
5.7932759099749935,0.2585221107833799
5.796054459572104,0.11205316257265878
5.798833009169214,0.05989520608111436
5.801611558766324,-0.011922467155847693
5.804390108363434,0.0008934562408301002
5.807168657960545,0.09027800863773794
5.809947207557656,0.05132969085859288
5.812725757154766,-0.0574086375413614
5.815504306751876,-0.05422893435011332
5.818282856348986,0.02708276190671883
5.821061405946097,-0.05870629340783378
5.823839955543207,-0.016527312040038725
5.826618505140317,0.00577122370293724
5.829397054737427,0.0026519961795410316
5.832175604334537,-0.03990032108434878
5.8349541539316485,-0.009454161499879151
5.837732703528759,-0.000535789768529047
5.840511253125869,-0.0614560784277274
5.843289802722979,0.04528941568405081
5.846068352320089,-0.09871776739159611
5.8488469019172,0.022595971624749873
5.85162545151431,0.0356584476209565
5.85440400111142,-0.020653887068141502
5.85718255070853,-0.06073487986210052
5.859961100305641,0.05105113092459614
5.8627396499027515,0.004719020133249864
5.865518199499862,-0.042032329857134725
5.868296749096972,0.005888997092172178
5.871075298694082,-0.08363805132814625
5.873853848291192,0.06852053303868977
5.876632397888303,-0.011259183330216454
5.879410947485413,0.0220924077154596
5.882189497082523,0.04169768629721512
5.884968046679633,-0.048279055924545344
5.887746596276744,-0.01962310823098339
5.890525145873855,-0.12568407464987236
5.893303695470965,0.021153697739584598
5.896082245068075,-0.03661810581375499
5.898860794665185,-0.04237348233339479
5.901639344262295,0.025678057809715216
5.904417893859406,-0.12416745339296269
5.907196443456516,0.026825875166090397
5.909974993053626,-0.06258094168671956
5.912753542650737,0.026756296102106975
5.915532092247847,0.011571213668530006
5.918310641844958,0.04149589432248134
5.921089191442068,0.17207293529874462
5.923867741039178,-0.036742361732949966
5.926646290636288,0.20995393566263798
5.929424840233398,0.19432572970956294
5.932203389830509,0.21086488600404935
5.934981939427619,0.24964615725013184
5.93776048902473,0.2812218161532411
5.94053903862184,0.22926265497762535
5.94331758821895,0.24974751034312737
5.946096137816061,0.2858499451364007
5.948874687413171,0.35238981791292306
5.951653237010281,0.286191556082621
5.954431786607391,0.4064876471074954
5.9572103362045015,0.46223214704333726
5.959988885801612,0.33358437988375844
5.962767435398722,0.3324976357827532
5.965545984995833,0.27781486971028263
5.968324534592943,0.3233875359714946
5.971103084190053,0.3028712548006305
5.973881633787164,0.359750045846819
5.976660183384274,0.19981797757167863
5.979438732981384,0.30290424021218915
5.982217282578494,0.2436960145258395
5.9849958321756045,0.16694671917411674
5.987774381772715,0.1763290901920309
5.990552931369826,0.13324909938492074
5.993331480966936,0.06626839309954408
5.996110030564046,0.007257710181065011
5.9988885801611564,0.029535390363104902
6.001667129758267,0.015965972722012854
6.004445679355377,0.03245481096172573
6.007224228952487,0.022052843154710206
6.010002778549597,0.01917371140748779
6.0127813281467075,-0.0714179843929414
6.015559877743819,-0.08803942180252317
6.018338427340929,0.01815165602424705
6.021116976938039,0.016937055840412246
6.023895526535149,-0.06258775550316692
6.0266740761322595,-0.010386426709254114
6.02945262572937,-0.03899236027582757
6.03223117532648,-0.03682549544205074
6.03500972492359,-0.03250141530911065
6.0377882745207,-0.03991982964125677
6.0405668241178105,-0.025702692486952918
6.043345373714922,0.00932748378365034
6.046123923312032,0.043629457814012874
6.048902472909142,0.01140229679127481
6.051681022506252,0.01867176138788208
6.0544595721033625,-0.0769433544374402
6.057238121700473,-0.04478570985168943
6.060016671297583,-0.026149415697913663
6.062795220894693,-0.03513526623333704
6.065573770491803,-0.015921904496322747
6.0683523200889145,0.030257052562446058
6.071130869686025,-0.02030220594358035
6.073909419283135,-0.09814394632607625
6.076687968880245,0.028843617824431407
6.079466518477355,0.09361416416189558
6.0822450680744655,0.014532430466509146
6.085023617671576,-0.07971539462978965
6.087802167268686,-0.047149976810567464
6.090580716865796,0.024410753080769735
6.093359266462907,-0.09649870291654455
6.0961378160600175,-0.02754125436083539
6.098916365657128,-0.013325041902433079
6.101694915254238,0.0013861020324509902
6.104473464851348,0.09327496444813946
6.107252014448458,0.049633775856629266
6.1100305640455685,0.005736143603977063
6.112809113642679,-0.034711620354123535
6.115587663239789,-0.048193584293050075
6.118366212836899,-0.06167144569653104
6.12114476243401,0.060576247807848295
6.1239233120311205,-0.017809558005571643
6.126701861628231,0.003250124738762742
6.129480411225341,0.06170202102544794
6.132258960822451,0.038334819488662866
6.135037510419561,-0.05330127005414264
6.137816060016672,0.028398397817871904
6.140594609613782,-0.037533937967427725
6.143373159210892,0.005532238585264503
6.146151708808003,-0.10422401504624401
6.148930258405113,-0.01436355305998256
6.1517088080022235,0.06963513541480458
6.154487357599334,0.038656407819151625
6.157265907196444,-0.06461938909871956
6.160044456793554,-0.05017933464472203
6.162823006390664,-0.03139585159653708
6.165601555987775,0.007734037986264569
6.168380105584885,-0.0422870388812998
6.171158655181995,-0.043705694969897804
6.173937204779106,0.015241605243755696
6.176715754376216,0.10728944013094306
6.1794943039733266,-0.061809605395558
6.182272853570437,-0.006537625879561324
6.185051403167547,-0.04567749583209684
6.187829952764657,-0.06007447598156729
6.190608502361767,0.01238949680876024
6.193387051958878,0.03139630720540083
6.196165601555988,0.03919580558401763
6.198944151153099,0.05085240271326324
6.201722700750209,0.015727291980486016
6.204501250347319,0.06843388432291139
6.20727979994443,-0.025421949844501458
6.21005834954154,0.028606888919602065
6.21283689913865,0.009775669635003315
6.21561544873576,0.018278875411164124
6.21839399833287,-0.07046762469311145
6.221172547929981,-0.04707014191699657
6.223951097527092,0.041766699606894886
6.226729647124202,0.034866943923304715
6.229508196721312,0.02138992198061596
6.232286746318422,0.043781309856671814
6.235065295915533,0.05368238232048658
6.237843845512643,0.08328834472617282
6.240622395109753,-0.031884169921401355
6.243400944706863,0.1233679381510162
6.2461794943039735,0.07513434554673688
6.248958043901084,0.007928698633777041
6.251736593498195,0.02818288491611656
6.254515143095305,-0.029520707014351208
6.257293692692415,-0.04534878364048635
6.260072242289525,0.007947199707139507
6.262850791886636,0.005057501733845084
6.265629341483746,-0.04664299328116088
6.268407891080856,0.06254364912321983
6.271186440677966,-0.06385004111717885
6.2739649902750765,0.09309467590856006
6.276743539872188,-0.023672877601281186
6.279522089469298,-0.05418621824122521
6.282300639066408,-0.014899020321215923
6.285079188663518,-0.0062520805491083
6.287857738260628,0.07714730765664057
6.290636287857739,0.030012409525559242
6.293414837454849,0.026485890564543597
6.296193387051959,-0.016919150655570852
6.298971936649069,0.02923417867990164
6.30175048624618,0.004968281995045557
6.304529035843291,0.029384844680773597
6.307307585440401,0.016913301113024932
6.310086135037511,-0.04899085897588665
6.312864684634621,0.10166414981903477
6.3156432342317315,0.028585077483602214
6.318421783828842,-0.017871429625926177
6.321200333425952,-0.0941901969045224
6.323978883023062,-0.05891241775423922
6.326757432620172,0.02835004886704654
6.329535982217283,0.025455575452924557
6.332314531814394,0.03072670635134105
6.335093081411504,0.1027119386476175
6.337871631008614,0.07925354999417145
6.340650180605724,-0.05703148462076425
6.3434287302028345,-0.0030175727399291037
6.346207279799945,9.342995729150262e-05
6.348985829397055,-0.13889313553248653
6.351764378994165,0.04696002918713791
6.354542928591276,0.06154969719279625
6.357321478188386,0.03886576845987663
6.360100027785497,0.02097241328770424
6.362878577382607,0.03909313336286484
6.365657126979717,0.02752294818651235
6.368435676576827,0.036411342647459405
6.3712142261739375,-0.037585253785106874
6.373992775771048,0.013785388804545102
6.376771325368158,-0.002379440131383496
6.379549874965269,0.05987127749563395
6.382328424562379,0.017799483016194956
6.3851069741594895,-0.016433626939841697
6.3878855237566,-0.02980641239865191
6.39066407335371,-0.057567028994191395
6.39344262295082,0.03828892859306881
6.39622117254793,-0.026481725978373307
6.3989997221450405,0.07095350496039468
6.401778271742151,0.04280673612385876
6.404556821339261,0.011439457220805001
6.407335370936372,0.012217702461232757
6.410113920533482,0.01892838021409755
6.4128924701305925,0.005672628443865452
6.415671019727703,-0.04754776715639971
6.418449569324813,0.07243143170035986
6.421228118921923,-0.05048398549002319
6.424006668519033,-0.05510261340077623
6.426785218116144,0.02181002385261586
6.429563767713254,-0.13923283225266542
6.432342317310365,0.05887281833271701
6.435120866907475,-0.030898746229421556
6.437899416504585,0.010694885257766802
6.4406779661016955,0.08195909295219694
6.443456515698806,0.040700864528612234
6.446235065295916,-0.07605841716300211
6.449013614893026,0.008395413724077273
6.451792164490136,0.034243453025027404
6.454570714087247,-0.012113603946687337
6.457349263684358,-0.00685069840316058
6.460127813281468,0.027509497869686494
6.462906362878578,-0.028552354364324708
6.465684912475688,0.06951030657507867
6.4684634620727985,-0.0074367563202600824
6.471242011669909,0.02538245752781038
6.474020561267019,0.07623716939433912
6.476799110864129,0.05359167839883431
6.479577660461239,0.011374780913339093
6.48235621005835,0.1221716265040446
6.485134759655461,-0.05806494597302349
6.487913309252571,0.07417088572236188
6.490691858849681,-0.07341732792770798
6.493470408446791,0.008653296499722504
6.496248958043902,0.1212850027721019
6.499027507641012,0.0697904892180557
6.501806057238122,0.16347027069434839
6.504584606835232,0.17600727773544628
6.507363156432342,0.2229377439869918
6.5101417060294535,0.16506670326633266
6.512920255626564,0.2483463095074961
6.515698805223674,0.22109257231169444
6.518477354820784,0.1630875704237681
6.521255904417894,0.2569889228501425
6.524034454015005,0.18893406504482807
6.526813003612115,0.25806479840302887
6.529591553209225,0.29660393432102583
6.532370102806335,0.19444678772515334
6.535148652403446,0.13788172533775164
6.5379272020005565,0.06163691018796218
6.540705751597667,0.014623478579845209
6.543484301194777,0.06400259340306484
6.546262850791887,0.1737685050326169
6.549041400388997,0.1569403205869167
6.551819949986108,0.06700590068006015
6.554598499583218,0.06106902129672371
6.557377049180328,0.019884413755733864
6.560155598777438,0.01895804276922472
6.562934148374549,0.03744574624064267
6.56571269797166,0.27915454869510925
6.56849124756877,0.3885491948935018
6.57126979716588,0.6050415282520147
6.57404834676299,0.9922275961660112
6.5768268963601,1.4757563955894537
6.579605445957211,1.496112992699378
6.582383995554321,1.5100580790908127
6.585162545151431,1.1684238989132243
6.587941094748542,0.7694402399606131
6.590719644345652,0.4878808977707494
6.593498193942763,0.22464474401877965
6.596276743539873,0.11522227821065105
6.599055293136983,0.17695020157195368
6.601833842734093,-0.0021089115058379217
6.6046123923312035,-0.0342758041231913
6.607390941928314,0.06437166258786764
6.610169491525424,-0.03851608422149344
6.612948041122535,-0.00019879919960861443
6.615726590719645,-0.059865600110976365
6.618505140316755,-0.046935709994891495
6.621283689913866,0.023515571838366525
6.624062239510976,-0.01116905594595856
6.626840789108086,-0.06246265807348995
6.629619338705196,-0.007215149437755572
6.6323978883023065,0.08261099802037186
6.635176437899417,-0.005229755436998721
6.637954987496527,0.06146980865821553
6.640733537093638,-0.026357910664938963
6.643512086690748,-0.034820836686682864
6.646290636287858,-0.0037854705407066895
6.649069185884969,-0.07326004695964082
6.651847735482079,0.04578117719912638
6.654626285079189,0.06192067014315841
6.657404834676299,-0.001446902742944521
6.6601833842734095,0.0005124628345230907
6.66296193387052,0.03004455541256116
6.665740483467631,-0.019360724411273424
6.668519033064741,-0.032467593920209474
6.671297582661851,0.013894067900896038
6.6740761322589615,-0.00297476243666048
6.676854681856072,0.04760807661387228
6.679633231453182,0.07448942515887105
6.682411781050292,-0.03657537678773691
6.685190330647402,-0.04039243159078021
6.6879688802445125,0.05515878327777642
6.690747429841623,0.019284436024293868
6.693525979438734,0.02973589975493089
6.696304529035844,0.004527807994646117
6.699083078632954,0.07654860000866157
6.7018616282300645,-0.03703734663240435
6.704640177827175,0.08508490901010102
6.707418727424285,-0.03292098066358405
6.710197277021395,0.07696972168254634
6.712975826618505,0.009048988476965239
6.7157543762156156,-0.04622837823035207
6.718532925812727,0.09939251315135891
6.721311475409837,0.03345571570607602
6.724090025006947,0.05282490770211325
6.726868574604057,0.09506777775271791
6.7296471242011675,0.14329844786741294
6.732425673798278,0.15714476401018912
6.735204223395388,0.22176584353186257
6.737982772992498,0.22628088399507032
6.740761322589608,0.19798760070542396
6.7435398721867195,0.28628815475609914
6.74631842178383,0.28188493816322524
6.74909697138094,0.29855759998358944
6.75187552097805,0.3401193349814552
6.75465407057516,0.3631876080176892
6.7574326201722705,0.36017355882284074
6.760211169769381,0.3490655448131041
6.762989719366491,0.3914005801514038
6.765768268963601,0.28309019060725704
6.768546818560711,0.35533649471551065
6.7713253681578225,0.33896000493487105
6.774103917754933,0.2426361905868727
6.776882467352043,0.2525429626725282
6.779661016949153,0.23320476085489056
6.782439566546263,0.25520749707137175
6.785218116143374,0.1820151717003705
6.787996665740484,0.1413863431980648
6.790775215337594,0.1428736051844925
6.793553764934704,0.13429632189025636
6.796332314531815,0.09838882194467116
6.7991108641289255,0.1050750326621048
6.801889413726036,0.0035847003546482653
6.804667963323146,0.1396236186372826
6.807446512920256,0.013726060677300617
6.810225062517366,0.03899366075961457
6.813003612114477,0.01082382993665931
6.815782161711587,0.006299852588953615
6.818560711308697,0.03041056638559287
6.821339260905808,-0.03562222833159119
6.824117810502918,0.1364209596891769
6.8268963601000285,-0.07413828736890776
6.829674909697139,0.09694793813954096
6.832453459294249,-0.062084937940795254
6.835232008891359,0.017767826148811436
6.838010558488469,0.07126991346854432
6.84078910808558,0.1406479010341351
6.84356765768269,-0.045934099944764314
6.8463462072798,0.016579858213310334
6.849124756876911,0.025051612903474216
6.851903306474021,0.059769799494617935
6.854681856071132,0.0019325305586597682
6.857460405668242,-0.016537270173860568
6.860238955265352,-0.04849660080797959
6.863017504862462,0.005475737401965242
6.865796054459572,0.03556035992836549
6.868574604056683,0.007501535523674856
6.871353153653793,-0.04980762676765553
6.874131703250904,-0.023941616671039473
6.876910252848014,-0.11170035389736059
6.879688802445124,0.0703459046737188
6.882467352042235,0.021944435766069807
6.885245901639345,0.06338865460956725
6.888024451236455,0.04954560241852958
6.890803000833565,-0.02099764264127354
6.893581550430675,0.01533747629012008
6.896360100027786,-0.039211894220770364
6.899138649624897,-0.046948777032309985
6.901917199222007,0.06424747354659997
6.904695748819117,0.018903385277433862
6.907474298416227,-0.03825974501449787
6.910252848013338,-0.04899432082561593
6.913031397610448,-0.0838439804570813
6.915809947207558,0.013804624474609613
6.918588496804668,-0.030245745365130878
6.9213670464017785,-0.09275231392683048
6.924145595998889,-0.030271223710245456
6.926924145596,0.027060966070477917
6.92970269519311,0.02410416429460175
6.93248124479022,0.033329938756251336
6.93525979438733,-0.008635538834095586
6.938038343984441,-0.02212832182522932
6.940816893581551,0.018123832799903063
6.943595443178661,0.07305974985053305
6.946373992775771,-0.06341335038772432
6.9491525423728815,0.07146379217054738
6.951931091969993,0.05066047759355934
6.954709641567103,-0.09284494290820636
6.957488191164213,-0.016753239601324223
6.960266740761323,-0.05556221191862629
6.9630452903584334,0.061209768192162776
6.965823839955544,0.11286105625934961
6.968602389552654,0.011737741345121209
6.971380939149764,-0.053127342891968
6.974159488746874,0.03289365933335495
6.976938038343985,-0.04843083691427422
6.979716587941096,-0.00484443943793431
6.982495137538206,-0.0013920890243432882
6.985273687135316,0.10673285432368769
6.988052236732426,-0.01395042437841025
6.9908307863295365,0.006375749126873442
6.993609335926647,0.013561300754335932
6.996387885523757,0.01936799084583716
6.999166435120867,-0.014865571733224923
7.001944984717977,0.018727535191831013
7.004723534315088,0.0036840159075485477
7.007502083912199,0.02036712427272553
7.010280633509309,-0.014885935141172875
7.013059183106419,-0.027991463668178437
7.015837732703529,0.05672921768867104
7.0186162823006395,0.049828955667716224
7.02139483189775,0.004771101382373857
7.02417338149486,0.031115655079870193
7.02695193109197,-0.01940127529734928
7.029730480689081,0.06135356787402945
7.0325090302861915,0.08871391682887497
7.035287579883302,-0.1029301232088124
7.038066129480412,-0.04532224055528745
7.040844679077522,0.09296296111479968
7.043623228674632,-0.05243087405360776
7.0464017782717425,0.07561666097115688
7.049180327868853,0.011843055408625097
7.051958877465963,-0.011807288551085945
7.054737427063074,0.0067772371097509915
7.057515976660184,0.023948125248056236
7.0602945262572945,0.07514054839687372
7.063073075854405,0.08204244667384603
7.065851625451515,-0.011368726330203605
7.068630175048625,-0.059115823491832524
7.071408724645735,-0.0672672075713524
7.0741872742428455,0.0018824994654626115
7.076965823839956,-0.090319754412724
7.079744373437066,0.07994321253199065
7.082522923034177,0.09721560105067391
7.085301472631287,-0.023999160410515093
7.0880800222283975,0.05218869510298229
7.090858571825508,0.007263686996025587
7.093637121422618,0.014037821548144739
7.096415671019728,-0.04476444756718775
7.099194220616838,0.05777582460816064
7.101972770213949,0.023757912866732834
7.104751319811059,-0.009329402423109015
7.10752986940817,0.015897386332162873
7.11030841900528,0.010126814735950847
7.11308696860239,-0.045544260827313415
7.1158655181995005,-0.06531607885877765
7.118644067796611,-0.0780692721425016
7.121422617393721,-0.0032512863747699732
7.124201166990831,0.04440874478760633
7.126979716587941,0.03724893133380321
7.129758266185052,-0.05922026497674228
7.132536815782162,-0.01759489331262085
7.135315365379273,-0.020193598979890384
7.138093914976383,0.02848230431384112
7.140872464573493,0.012079915250841455
7.1436510141706036,-0.059976020527064466
7.146429563767714,0.01983150906945835
7.149208113364824,-0.05584739285127534
7.151986662961934,-0.05016854625026882
7.154765212559044,-0.00041475873859493276
7.157543762156155,0.0028539841468427987
7.160322311753266,0.0386491062937411
7.163100861350376,0.06837015371877292
7.165879410947486,0.09220559383202431
7.168657960544596,0.008779826353962733
7.171436510141707,0.053852455775720925
7.174215059738817,-0.03163875027169446
7.176993609335927,0.044495184475272266
7.179772158933037,-0.06858977735372836
7.182550708530147,0.021542109528827524
7.1853292581272585,0.05287526749111854
7.188107807724369,0.006424249967808948
7.190886357321479,0.03146980007581903
7.193664906918589,0.007294520656443125
7.196443456515699,0.002062329764690213
7.19922200611281,0.06409049976492696
7.20200055570992,0.06859171760865328
7.20477910530703,0.01138167151461749
7.20755765490414,0.07993639042165836
7.2103362045012505,0.023855767376036698
7.213114754098362,0.02379297171279011
7.215893303695472,0.021358840127722524
7.218671853292582,0.011480939858914525
7.221450402889692,0.06175377762007605
7.224228952486802,0.05693057670034542
7.227007502083913,-0.03160848582322491
7.229786051681023,0.07277880975829985
7.232564601278133,0.0038184743750416315
7.235343150875243,-0.055911323364424864
7.238121700472354,0.033440660649488065
7.240900250069465,-0.021865136203206636
7.243678799666575,-0.012060182323311876
7.246457349263685,-0.05578497501678938
7.249235898860795,0.06945816691841306
7.252014448457905,-0.04159296038421914
7.254792998055016,0.0797105380373564
7.257571547652126,0.014042082475623975
7.260350097249236,-0.014061051824541504
7.263128646846347,0.026172137422076035
7.265907196443457,0.02683098916214256
7.268685746040568,0.04508672547204685
7.271464295637678,0.0922422860767197
7.274242845234788,0.04564124772097579
7.277021394831898,-0.06828759226236909
7.2797999444290085,0.007464258127420891
7.282578494026119,0.02748642087653175
7.285357043623229,-0.006266024727016737
7.288135593220339,0.04325796701812509
7.29091414281745,0.04694332277037642
7.29369269241456,0.08942540427191177
7.296471242011671,0.026655853225954873
7.299249791608781,0.08174780551399696
7.302028341205891,0.05503305908928084
7.304806890803001,0.22555102199877303
7.3075854404001115,0.21366745472492565
7.310363989997222,0.28160617608005734
7.313142539594332,0.21148087908229804
7.315921089191443,0.2032184743092303
7.318699638788553,0.28021514638849176
7.321478188385663,0.28989104155135814
7.324256737982774,0.23349910848993388
7.327035287579884,0.2106287791988487
7.329813837176994,0.1781220827606968
7.332592386774104,0.2692822592201585
7.3353709363712145,0.0917561198952441
7.338149485968325,0.05920928915871962
7.340928035565436,0.15716790818586135
7.343706585162546,0.08202456142028322
7.346485134759656,0.09832146603901493
7.3492636843567665,0.05329908182851956
7.352042233953877,0.04207356015680665
7.354820783550987,0.11028039374182999
7.357599333148097,-0.024056654726628317
7.360377882745207,0.056989335548155835
7.3631564323423175,0.19807961295585474
7.365934981939428,0.18529956057018332
7.368713531536539,0.4338963954107656
7.371492081133649,0.6587577449704864
7.374270630730759,1.053868917326721
7.3770491803278695,1.322579240175698
7.37982772992498,1.5019836400420956
7.38260627952209,1.3685892027922157
7.3853848291192,1.0808938510468689
7.38816337871631,0.7340731910011705
7.390941928313421,0.38920825440913326
7.393720477910532,0.23624215173623048
7.396499027507642,0.09812921272700488
7.399277577104752,0.01740785856180841
7.402056126701862,0.02948040862186474
7.4048346762989725,0.03723725819281275
7.407613225896083,-0.11011012312844826
7.410391775493193,0.08954661989949729
7.413170325090303,0.00240930131204232
7.415948874687413,0.0652762308671406
7.4187274242845245,0.011674064419612664
7.421505973881635,0.05318002082200641
7.424284523478745,-0.08349957435538127
7.427063073075855,0.060835547750842524
7.429841622672965,0.024902540829879954
7.4326201722700755,0.04148723306148036
7.435398721867186,-0.027292868833323807
7.438177271464296,0.019319853406656047
7.440955821061406,-0.023945955634913356
7.443734370658516,0.05606817362690224
7.4465129202556275,-0.025602054364080595
7.449291469852738,0.004276672385723644
7.452070019449848,0.05410058140127731
7.454848569046958,0.051324390621236525
7.457627118644068,-0.04088940418846923
7.460405668241179,-0.0046861852399866875
7.463184217838289,-0.013056554250557907
7.465962767435399,-0.010920716369444352
7.468741317032509,-0.033969193943503305
7.47151986662962,0.01792480809174385
7.4742984162267305,-0.042543494255280104
7.477076965823841,0.011851022955727725
7.479855515420951,0.045976092114352954
7.482634065018061,-0.029229572621613544
7.485412614615171,-0.11265756763515239
7.488191164212282,-0.03091256063084037
7.490969713809392,0.03376257264647021
7.493748263406502,0.010256479253998443
7.496526813003613,0.033832984700327584
7.499305362600723,-0.09929241122674304
7.5020839121978335,0.010886481314661706
7.504862461794944,0.004029997354541116
7.507641011392054,-0.059194848850573925
7.510419560989164,0.013732801858019256
7.513198110586274,0.0522794936071588
7.515976660183385,-0.010457437644586995
7.518755209780495,0.04051169465544856
7.521533759377605,0.09019075245065028
7.524312308974716,0.05630181280130798
7.527090858571826,0.1642785593081015
7.529869408168937,0.1790493899939538
7.532647957766047,0.19270004540012714
7.535426507363157,0.1348851644790744
7.538205056960267,0.1585254541977068
7.540983606557377,0.2248696315683295
7.543762156154488,0.2609777433034539
7.546540705751598,0.28125877075579325
7.549319255348709,0.32032817204296127
7.552097804945819,0.3400490721419227
7.554876354542929,0.35484363559860577
7.55765490414004,0.3225428614139785
7.56043345373715,0.23286707528858647
7.56321200333426,0.40720116832464187
7.56599055293137,0.38326211377745667
7.5687691025284805,0.3807814319185045
7.571547652125591,0.28375602452849646
7.574326201722702,0.2864934734078017
7.577104751319812,0.1710984224956663
7.579883300916922,0.18547778152556574
7.582661850514032,0.1884488350367555
7.585440400111143,0.1580529998834798
7.588218949708253,0.18692614921439293
7.590997499305363,0.07643926890217231
7.593776048902473,0.1693123621139764
7.5965545984995835,0.04404477859871289
7.599333148096694,0.07218427018258772
7.602111697693805,0.007794125325533509
7.604890247290915,0.035802217504010234
7.607668796888025,0.06990189947797096
7.610447346485135,0.03900018540815519
7.613225896082246,0.04645835519416494
7.616004445679356,0.00619834546485625
7.618782995276466,-0.022422311535401244
7.621561544873576,0.04640814587324847
7.6243400944706865,0.07849919950330675
7.627118644067798,-0.0002754288443648917
7.629897193664908,0.029190390245022325
7.632675743262018,0.036505459429277416
7.635454292859128,-0.024673250554382558
7.6382328424562385,-0.07311000421841472
7.641011392053349,-0.043767828064921424
7.643789941650459,-0.11237589675374694
7.646568491247569,-0.027542748505466938
7.649347040844679,0.07078361983360075
7.6521255904417895,0.05795121990645439
7.654904140038901,-0.10268909582016883
7.657682689636011,0.062230036743362235
7.660461239233121,0.016968372303012094
7.663239788830231,0.02960554499390172
7.6660183384273415,-0.033767840874047085
7.668796888024452,0.04122240044732764
7.671575437621562,0.011351457055795352
7.674353987218672,0.02681641691689189
7.677132536815782,0.018617200622262586
7.679911086412893,-0.0217854237165144
7.682689636010004,0.02768100045013778
7.685468185607114,0.02044966281322474
7.688246735204224,0.015109834378146714
7.691025284801334,0.08150501406023335
7.6938038343984445,0.037037397759698346
7.696582383995555,0.017078482663715203
7.699360933592665,-0.03127309841409008
7.702139483189775,-0.1303516936461168
7.704918032786886,-0.046082217370239334
7.7076965823839965,0.07441251444009635
7.710475131981107,0.023850241579534377
7.713253681578217,0.002149075469044944
7.716032231175327,-0.03131747144987938
7.718810780772437,0.02007171941264613
7.7215893303695475,-0.04371502347463406
7.724367879966658,0.03732265442227297
7.727146429563768,0.04096723195356996
7.729924979160878,0.002135342797830556
7.732703528757989,-0.06037990832809515
7.7354820783550995,-0.03716814402964653
7.73826062795221,0.0406662234406205
7.74103917754932,-0.0004600718383367204
7.74381772714643,0.08987329883773737
7.74659627674354,0.15005205788169604
7.749374826340651,0.023033508601505156
7.752153375937761,0.02476982852864242
7.754931925534871,-0.018013801080184057
7.757710475131982,-0.041541578674801904
7.760489024729092,0.08224092666020927
7.7632675743262025,0.013276403060775183
7.766046123923313,-0.06155917848923592
7.768824673520423,-0.021682188378834025
7.771603223117533,0.016972802651141688
7.774381772714643,-0.030529275236001015
7.777160322311754,-0.06652242942370167
7.779938871908864,-0.010865397145396295
7.782717421505975,0.019243597348028156
7.785495971103085,-0.013825040193906044
7.788274520700195,0.015712602059090062
7.7910530702973055,-0.02850473515659327
7.793831619894416,0.04658743890172475
7.796610169491526,-0.01663525143471632
7.799388719088636,-0.012987634723508355
7.802167268685746,0.07861572998586851
7.804945818282857,0.0006881261246780909
7.807724367879967,0.02239967382398371
7.810502917477078,0.022439132243884764
7.813281467074188,-0.05598736762209641
7.816060016671298,0.022469092113887847
7.818838566268409,0.026043954696230776
7.821617115865519,0.03244015248544054
7.824395665462629,-0.009350967016293997
7.827174215059739,-0.029149889433391335
7.829952764656849,-0.007352744324112125
7.83273131425396,0.005156255261872806
7.835509863851071,-0.04012655183009502
7.838288413448181,0.0023503944936242474
7.841066963045291,0.05662306367132547
7.843845512642401,-0.06644298710896417
7.846624062239512,0.007192311997155584
7.849402611836622,0.02414690121190932
7.852181161433732,0.05438300213918489
7.854959711030842,0.007249912745483794
7.857738260627952,0.006843799691766675
7.8605168102250635,0.046351992798280284
7.863295359822174,-0.00045369098913104186
7.866073909419284,0.031978832929661825
7.868852459016394,0.05250855243577615
7.871631008613504,0.0383180314816476
7.874409558210615,-0.031822710224181025
7.877188107807725,-0.027819240621376664
7.879966657404835,0.03840782355875548
7.882745207001945,-0.005451384434915162
7.8855237565990555,-0.02158895077788697
7.888302306196167,0.05415408932334042
7.891080855793277,0.08074123686207714
7.893859405390387,-0.06744917508369411
7.896637954987497,-0.02134021844429354
7.899416504584607,-0.06352405271714141
7.902195054181718,-0.041294965233804645
7.904973603778828,-0.041783250713885015
7.907752153375938,0.01784609369674352
7.910530702973048,-0.006702974675562013
7.913309252570159,0.17845953660334177
7.91608780216727,0.007762348716166598
7.91886635176438,0.0007812678882307807
7.92164490136149,0.027627846686221813
7.9244234509586,0.016627180053450107
7.9272020005557104,-0.016710017002043814
7.929980550152821,-0.029869670702373563
7.932759099749931,-0.11640403905653479
7.935537649347041,0.04541858714840338
7.938316198944152,-0.020146409151387445
7.941094748541262,-0.03863569206383748
7.943873298138373,0.05387987083752446
7.946651847735483,0.06363219132990477
7.949430397332593,0.0028009808711787045
7.952208946929703,-0.033446387940690554
7.9549874965268135,-0.005854348582656407
7.957766046123924,-0.05551024347066733
7.960544595721034,-0.07647749647962107
7.963323145318144,0.012389328918164848
7.966101694915255,-0.035382049098379754
7.968880244512365,0.029434130443623155
7.971658794109476,-0.07533341201621933
7.974437343706586,0.06395775353715295
7.977215893303696,0.006932110744007643
7.979994442900806,0.019887419882016512
7.9827729924979165,0.025908837571232475
7.985551542095027,-0.05165640666559673
7.988330091692137,0.015763278614363337
7.991108641289248,-0.05575792902485139
7.993887190886358,0.018016216636830843
7.9966657404834685,0.024888604301427225
7.999444290080579,0.0074930374380363166
8.002222839677689,-0.023593469492320215
8.005001389274799,0.09682673317751547
8.00777993887191,-0.06683452750531571
8.01055848846902,0.03570191636804721
8.01333703806613,0.03033922864309539
8.01611558766324,0.03026378381497553
8.01889413726035,-0.0221587401266888
8.02167268685746,0.07231014417107286
8.02445123645457,0.004312531075392449
8.02722978605168,-0.021393109104698615
8.030008335648793,-0.014316693013004289
8.032786885245903,-0.07083069017719246
8.035565434843013,-0.03564453099820231
8.038343984440123,-0.009893999556440677
8.041122534037234,-0.029621864521968393
8.043901083634344,-0.021252170482438246
8.046679633231454,0.013909980926786561
8.049458182828564,-0.053417855992742645
8.052236732425675,0.04111788591057434
8.055015282022785,-0.08036944089672797
8.057793831619895,0.036420404559827674
8.060572381217005,-0.009346463656034839
8.063350930814115,0.0027486968255299605
8.066129480411226,-0.011967139321224349
8.068908030008336,0.0034774763833401974
8.071686579605446,0.0672226460909457
8.074465129202556,-0.05246295537028161
8.077243678799666,0.03426551089104306
8.080022228396777,-0.056718208196899
8.082800777993889,0.026825428374144825
8.085579327590999,0.14723890598533113
8.088357877188109,0.06422164380446425
8.09113642678522,-0.010335991617268593
8.09391497638233,0.02529667217115357
8.09669352597944,0.15524108535711037
8.09947207557655,0.07862435818766461
8.10225062517366,0.03992372267627996
8.10502917477077,0.12028343840217856
8.10780772436788,0.1103218045985597
8.11058627396499,0.13885132245283116
8.113364823562101,0.3393826077943437
8.116143373159211,0.3065905480561704
8.118921922756321,0.262736835164993
8.121700472353432,0.24340082737856714
8.124479021950542,0.248240439675532
8.127257571547652,0.17051554045130277
8.130036121144762,0.22679229827335348
8.132814670741872,0.22979535177886126
8.135593220338984,0.11384235446812392
8.138371769936095,0.06755679841568861
8.141150319533205,0.0501042907315199
8.143928869130315,-0.05508948059704742
8.146707418727425,0.09849374495880733
8.149485968324536,0.0030349410777970043
8.152264517921646,0.03303063319583753
8.155043067518756,-0.01546454059275295
8.157821617115866,-0.016397330105968076
8.160600166712976,0.15304565478826732
8.163378716310087,0.18824581603072907
8.166157265907197,0.27437975920671637
8.168935815504307,0.4127247798365911
8.171714365101417,0.7597323492068276
8.174492914698527,1.141356972125344
8.177271464295638,1.3972466206773508
8.180050013892748,1.4699234097196114
8.182828563489858,1.3881256449811064
8.18560711308697,1.1380863200952955
8.18838566268408,0.7760641860994539
8.19116421228119,0.46709092956993337
8.1939427618783,0.2565948302819495
8.196721311475411,0.07266792905821681
8.199499861072521,0.059847282029626095
8.202278410669631,0.10979997669866134
8.205056960266742,-0.07046998466677913
8.207835509863852,0.05327001294507725
8.210614059460962,0.0230483394662723
8.213392609058072,-0.03917163610677928
8.216171158655182,0.0004476143981838728
8.218949708252293,-0.008646466391880919
8.221728257849403,-0.007011737073078905
8.224506807446513,-0.011604116141724661
8.227285357043623,0.03665615723427049
8.230063906640734,0.023238020110861055
8.232842456237844,0.07083854037118986
8.235621005834954,-0.0902670646227606
8.238399555432066,0.0025603237427835233
8.241178105029176,-0.010822458031515356
8.243956654626286,-0.056827988983644426
8.246735204223397,0.0018833099683296575
8.249513753820507,0.016491770771760627
8.252292303417617,-0.002422815840246407
8.255070853014727,0.023898088977110918
8.257849402611837,0.02199166527326885
8.260627952208948,0.023930819947729165
8.263406501806058,0.026839245822617763
8.266185051403168,0.04055529695104005
8.268963601000278,0.061754567889785984
8.271742150597388,-0.0016445311328870985
8.274520700194499,-0.026931706632994972
8.277299249791609,-0.0063331758382922385
8.28007779938872,0.010703128956647462
8.28285634898583,-0.028991685001895945
8.28563489858294,-0.04558542943049861
8.28841344818005,-0.014630457681036099
8.291191997777162,-0.019194392206034125
8.293970547374272,0.051390685009385505
8.296749096971382,0.018327471145615355
8.299527646568492,0.0012444072824996117
8.302306196165603,0.023510861199616366
8.305084745762713,0.060229313798389666
8.307863295359823,0.11571346436150398
8.310641844956933,0.06492151821214352
8.313420394554043,0.05395557136557809
8.316198944151154,0.09709837018896739
8.318977493748264,0.0385535223010826
8.321756043345374,0.043534898090396186
8.324534592942484,0.09561141067875384
8.327313142539595,0.05640175290905014
8.330091692136705,0.09475141456865273
8.332870241733815,0.16817204656772047
8.335648791330925,0.17049574161461553
8.338427340928035,0.25916508316168063
8.341205890525147,0.2555805468815011
8.343984440122258,0.15486609045476335
8.346762989719368,0.2258667069562726
8.349541539316478,0.2805684474485866
8.352320088913588,0.4298305658441475
8.355098638510698,0.3159165351789345
8.357877188107809,0.3966269748905278
8.360655737704919,0.3464809580255878
8.363434287302029,0.2877060147978908
8.36621283689914,0.39582199511788935
8.36899138649625,0.3113247406228075
8.37176993609336,0.3375222558773391
8.37454848569047,0.28115283317822226
8.37732703528758,0.3204275275710671
8.38010558488469,0.28542396496852196
8.3828841344818,0.24710902038495272
8.38566268407891,0.14742468760632058
8.388441233676021,0.1752665867995136
8.391219783273131,0.09740197635063619
8.393998332870243,0.15906038784986148
8.396776882467353,0.05147546508421421
8.399555432064464,0.06641189462441312
8.402333981661574,0.07421686535024173
8.405112531258684,-0.0010604684500739314
8.407891080855794,0.14268858728075967
8.410669630452904,0.0014042177589819044
8.413448180050015,0.06428731520137235
8.416226729647125,0.07405778099614004
8.419005279244235,0.09516191480525951
8.421783828841345,0.007566357177343729
8.424562378438456,0.023736386417310157
8.427340928035566,-0.05014671436646296
8.430119477632676,-0.010794927837061662
8.432898027229786,0.04831371380772203
8.435676576826896,-0.020101311095018996
8.438455126424007,-0.014140707175205606
8.441233676021117,0.0032979502447150477
8.444012225618227,0.03499274482819972
8.446790775215339,-0.004059086468980455
8.44956932481245,-0.07231587239824759
8.45234787440956,-0.03263100030066351
8.45512642400667,-0.06762913537427542
8.45790497360378,0.07535545382145149
8.46068352320089,0.009998444635606873
8.463462072798,0.04492297902297319
8.46624062239511,-0.07895406442742534
8.46901917199222,-0.05181875210338277
8.471797721589331,0.0242270941418383
8.474576271186441,0.0478082155282591
8.477354820783551,-0.01705985368623334
8.480133370380662,-0.032582519081918664
8.482911919977772,0.06078918776275371
8.485690469574882,-0.02379544877218475
8.488469019171992,0.04946618210069635
8.491247568769102,-0.04186589512784635
8.494026118366213,-0.02944132941507752
8.496804667963325,-0.0921763475157901
8.499583217560435,-0.03604790793439989
8.502361767157545,-0.022167940564545557
8.505140316754655,0.008884456607208492
8.507918866351766,-0.02141558520496939
8.510697415948876,-0.037445745254826676
8.513475965545986,-0.04587886007831131
8.516254515143096,-0.0015970527999392722
8.519033064740206,-0.007626702846935462
8.521811614337317,-0.03814086380746938
8.524590163934427,-0.03918134307143909
8.527368713531537,0.0032797485430319856
8.530147263128647,-0.04266132539660012
8.532925812725757,-0.08513814688862793
8.535704362322868,0.0009687185246087726
8.538482911919978,-0.023878347333679283
8.541261461517088,-0.042501369345175614
8.544040011114198,-0.009591821287448211
8.546818560711309,0.0056189609415993064
8.54959711030842,-0.03435562482225385
8.55237565990553,-0.050868287079057814
8.555154209502641,0.03351440452850087
8.557932759099751,-0.0704226154236188
8.560711308696861,-0.0027479370221503
