amplitude
0.001521610817373434
-0.01579885680916137
-0.041253402147020043
-0.015996038277451496
-0.02250756979767579
-0.013046309005775443
-0.0660373475111403
0.048940012669026214
0.009879768675544107
-0.06047284554241642
-0.06638151404611632
-0.07863603074138938
-0.043253217842041836
-0.006318799069213464
0.054275503414272695
-0.0644855946947753
-0.007328172615666469
0.04233188891935802
0.05938960086260528
-0.038745305608958315
0.057964598049068033
-0.04369015212202759
-0.017712384584810666
0.005928427275703138
-0.02696493024099533
-0.025705008038291895
-0.030305457719243867
-0.06607859543405917
-0.004819104053637839
0.1404551732924424
-0.01854678389420653
0.001990214222627357
0.03088665899950025
0.002069653468755035
0.08406039378885644
0.023663080688829805
0.013030391998535671
-0.05358939776459068
0.04826426636995439
0.03627337207903313
0.002286155868422332
0.0656601999687723
0.0698964570562198
-0.04042888277417065
0.0711312737973102
0.11227961941985966
0.1217923006593192
0.13824080539283473
0.17529683747714028
0.2292943880687087
0.238300331462351
0.19559208956044702
0.2640187781450662
0.28333781352109494
0.3355082564109043
0.2995983625593261
0.3677738968727103
0.26809435750174576
0.2734371914801708
0.32358123978753783
0.20999873612961356
0.14335140034622224
0.07046600647974227
0.04325746978707529
0.0500469025593154
0.013036568017782496
0.047896393366679314
0.073656253787309
-0.002673289715483326
0.021348478999221744
0.0765668487483118
-0.02423846891815644
0.06603296275316592
0.061013517917406127
0.1886478438101504
0.4216669007902243
0.7604222037087507
1.1303565681965142
1.3948850908257222
1.591150705538505
1.5654610228877865
1.225312428589762
0.8243754871795237
0.5437208514659149
0.3135779963734204
0.18040351856928566
0.09985591512426571
0.009709082604146674
0.05354767215445111
-0.01118792151538546
-0.042603309156479634
0.04311455138895766
-0.040765549790362406
-0.05290824154274741
-0.07442031246792002
0.03071591896317259
-0.0038534461516829227
0.015085823769221428
0.009923095767782561
0.03909168290503741
-0.01131282672497252
0.030637569730636433
0.062038048245020634
-0.028081147131237057
0.03858361298911616
0.03594401587058247
-0.03374101625360316
-0.006179890885292964
0.040374236499709205
-0.008817988063764728
-0.06048515955750582
-0.015269082699273417
0.004557509689999677
-0.04662537461672959
0.023265760842378424
-0.0020776658607073056
0.015997884280525333
0.06043475200223073
0.0046076592585031955
-0.036479238996249955
-0.018514196927700125
-0.007245297568537329
-0.05182247072353026
-0.012216457917670039
0.047860034202634336
-0.05392684777863293
-0.039865948638189215
-0.031463032637776056
-0.011208024093064352
-0.014383965089320624
-0.02755362160793135
0.004229352372457322
0.04006073501040866
-0.035589990859428926
0.03210207281759356
-0.027869645865035042
-0.03453161398134922
-0.009923452521843245
0.055669284307115076
-0.04228893175251985
0.0540137804444943
-0.021934210883865317
-0.05091789646368339
0.07831710248563084
0.05887793223552395
-0.005940540174001925
0.09604624026472637
0.10997236882335594
0.04149396713001779
0.1589385684774755
0.15716747727316363
0.16919319510476163
0.18633072863153444
0.13770193548029336
0.23191360251917018
0.31124388942136344
0.34452691295257015
0.35087694408670994
0.34661145275562466
0.36632754712967525
0.46511007678744976
0.4576365907060254
0.42327562931874146
0.4287182230281997
0.40014539982078345
0.38137521004987635
0.4142819387984775
0.31947958535035764
0.33098806901059036
0.26481169936109766
0.22098252973845076
0.21233924666569753
0.16391491962954807
0.18955122196260146
0.099650351996576
0.1369634645615719
0.0617178614177794
0.08859074027681244
0.057902782655440875
-0.031985237283671045
0.00474987548929259
-0.05012816503430087
0.02137894736912545
-0.0012812894109480878
-0.01838774112499158
-0.04560430937962412
-0.06656815131874719
-0.0004665456657482114
-0.002691160690110885
0.042068811483295596
-0.055489886021154344
-0.024758309395460948
-0.10722664266475239
0.043534823912132516
0.015342299960116487
0.0072463828831031574
-0.007713006749380849
0.04508118411506736
-0.023136750043836224
0.0663593662369323
-0.010532249310978523
-0.03651435920759042
-0.03693494764068726
0.015223903301547638
-0.06139162120852164
0.039492479090804916
-0.00267697343678184
-0.007473365245664253
-0.03110432121059851
-0.03511717123251487
0.010321402329965203
0.031243996441943728
-0.008705811683446463
-0.03152040824705248
-0.033724408443904175
-0.014075581561188438
-0.03143854792835696
-0.050988996210524815
0.04195947536694659
-0.04560857321990988
0.023785372677105877
0.0023661441486057897
0.04029773952835492
-0.08915789416281862
-0.06173297643195739
0.053544909358489344
-0.007583221258633695
0.0496489829157245
0.00817977563215497
0.014699233691573046
-0.0421203295160802
-0.009682309269365641
0.0068936676563983645
-0.04205535180688442
0.05684317565687874
0.05896770612880479
0.05099415525937019
0.021748450523604683
0.015961173490491858
-0.04597368503835041
0.02808321100899879
-0.03226997755333483
-0.0386521569570231
0.0006213535165670168
-0.02578118004425856
-0.05260965345657327
9.345879487265168e-05
0.08556241953671564
-0.022611700824064933
0.009703883490754085
-0.1193984459355662
0.008912394859427282
-0.034446841408365146
-0.0232870953819092
0.06015143077857236
0.02914883239410976
0.025469273108223393
0.04629877288718603
-0.08158527226710416
-0.019929352562810504
0.009220054696504061
0.08484352122463319
-0.012714138354453737
-0.02904502981669836
-0.017577093132774085
-0.009057963961161878
-0.0065044367346768685
-0.01594546645940974
-0.023121080976500244
0.06529471650770875
-0.028185809342334407
-0.0437109539041372
-0.026052509594032346
0.037806467117945886
-0.08187601375196149
-0.0024705092437852577
-0.028808629315156892
0.040042434079893975
-0.02989416641840132
0.007450453483007741
0.021275591272593534
-0.0067714179732926765
-0.03989362733304286
-0.046216682608820385
-0.00854985872419475
-0.043907124293700465
-0.050094023910735884
0.034561932478851996
0.08115163826666924
-0.002505561612965504
-0.010830475829073519
-0.00788116198857293
-0.0671654080465041
0.04107659433069712
0.089660594592063
0.0061768637617512865
0.022808628890098177
0.003146317699494069
-0.010112363454254541
-0.06155089423089712
0.056237330496853775
-0.0381927777207864
-0.0006660173388901721
0.08203971437621631
-0.006244885212256448
-0.029769658769901144
-0.019780576181772546
-0.008847898593535275
0.007652502009812842
-0.028992576777403738
-0.01298173103444966
-0.004567888787147863
0.0054745946985759976
0.02612550653546592
-0.05135103729668178
0.01924972100075852
-0.06343623278315662
-0.04424599774614563
-0.004630055486455597
0.016369467149193906
-0.04978048213904689
0.00393671176560725
0.020396698786355267
-0.0007939969330252374
0.0011764671103980122
-0.004023729262985319
0.08768491519390935
0.0001322655312307382
0.11952976613024871
0.04548130067441917
-0.0038166094675377454
-0.045247017333091305
0.05774019382392367
0.004028071789961155
-0.06289795218657532
-0.02229079606196977
-0.08140880378444879
0.058953149782501255
-0.04109181831536194
-0.054249155281587635
-0.09062531927532344
-0.018796487371251794
0.04933585528779929
0.024601968544674856
-0.00872427896326992
0.01770045653480282
-0.014857476293310816
-0.05970857699567426
0.0314499055121031
-0.03446311555187912
-0.05214407572700404
-0.015747581650827937
-0.07179735524085136
-0.013359604199571806
-0.01938818394250584
-0.02990916913886897
0.00118543870465789
-0.03934030526328693
-0.03184042198716641
0.02300833271756104
-0.027439160483880266
-0.049994636517823175
-0.048154054438849764
-0.02940289892238566
-0.03085475967194835
0.00881048626207973
-0.07577708123596526
0.058485867738842935
0.07730735412886812
0.06183612880423171
0.0032239456499411553
0.006002417751605026
0.04047440338505947
0.0679507336425273
0.041926399317169745
0.07554698195274509
-0.03142757887557311
-0.026797675901072737
-0.011803077992740878
-0.006067685917152505
-0.0965057005271782
-0.019876295821411996
-0.05177825588379984
0.013243236891035829
9.310836511354436e-05
-0.1245901901957204
-0.021222232010841304
-0.014163791748217356
0.016001752834937547
-0.013950828031629257
0.001722473840696656
7.09455407742543e-05
-0.05418939967247882
-0.09389268345251121
0.044277403268181754
-0.05413343598734022
-0.002111461352863868
-0.04668261599062848
-0.016198627508158984
0.00573436449532229
0.03328563791997627
0.019535730743063074
0.002781466545289195
-0.036367072948266355
-0.08652006170540968
-0.026722738783354683
-0.03464262825660352
-0.04316297639328149
-0.013184828184421307
0.0034939603051352855
-0.030604413196516286
0.003153086639769404
0.03874441064104985
-0.12128015958106325
0.059373746729570076
0.05957826496333429
0.004023765040029593
-0.01727867473628878
-0.02470814671598789
0.018736512060900268
0.0018371662463588462
-0.07223117706367352
0.10823368997758781
-0.01240366449939752
0.12163487772492808
-0.021605432693962486
0.026800025253987274
0.05094092219626451
-0.009046421756198846
0.07629780434664571
0.028351462727966913
-0.05022800204486656
0.01154764154215202
-0.014271382425067605
0.051256082951129524
-0.02985800738812749
0.006553060781802244
0.004571322941025428
0.011016892096486583
0.011654567258096845
0.017105993429874403
-0.007672748796996882
0.03950488441408445
-0.03095826065717174
-0.0019978142129926505
-0.09768387480464738
-0.02270539944772085
-0.04606882872690642
0.017985936712330283
0.011984499622736853
-0.012761905204584178
-0.042017106755407665
0.031202272057342207
0.01441494576496049
-0.0033024198098255022
0.007422364110685843
0.03192874206359818
0.0060328946426916365
0.05824880259037655
-0.008584315287169252
0.011314686263095381
-0.016428046866847405
0.025115009605059076
0.008937863021968794
-0.03468303487660418
0.004728405333412809
0.03289762061963098
-0.03651949177555243
-0.017700245142366046
0.042939186790188905
0.024199469617058014
-0.0020136360316850913
0.03156410357299226
0.0510468777601735
0.0823753071149205
0.016762943783334268
0.09327624046131237
0.05762314222446195
0.1653286312185372
0.12837681192317682
0.19541567940892007
0.23456617147880643
0.20737580731243913
0.22713521593231178
0.3213428217526351
0.29794753934564155
0.32917743196739296
0.3507741654085728
0.31609686461001424
0.13886838772729168
0.22688501071836348
0.18859132995387834
0.14688112839235426
0.16781692401254997
0.04268965348224982
0.05162035394139644
0.06852488888035223
0.008649080724247145
0.08715939187290102
0.040200914730017225
-0.006217487565608006
0.01026542158645478
-0.022824276726548916
-0.02549950068719114
0.03027860826331604
0.11979667304302849
0.2810764534099024
0.43490704632436783
0.7584456074451058
1.1616067220716229
1.4648452761830433
1.5998387790216257
1.503593678186255
1.155760807219854
0.884595732406501
0.47096567847000675
0.2970692040325036
0.13461329460177554
0.029489615723298404
-0.0012175502669279584
-0.05950063377687469
-0.08985850315510938
-0.055677164074800056
-0.01490573054009216
0.04394174360292343
0.01255118265342226
-0.018627857819687805
0.0019521398692297339
0.030066878827907186
0.013743220094890762
0.019979477818801678
0.07426062985291619
0.060680482616957965
0.06665708631798667
0.032781813854795866
0.023813724864230144
-0.05477432244778668
0.03380404668538439
-0.050556125411474584
-0.0006132879138118355
0.0275498783317499
0.051905230039407294
-0.011566489822252463
-0.022656350640130617
-0.050305480748179136
0.10749277910690583
0.03661634663586244
-0.016777279363009334
-0.02314145957730846
-0.03902888686672656
0.028804906614036126
-0.018077456281181514
-0.061454492732140056
0.05087110069407795
0.007971509434259795
0.0034882243200629807
-0.048852807729761416
-0.025433402772446226
0.022497067735064057
-0.05680705435207478
0.04115878514249568
-0.01566716737341108
-0.01547970898623311
-0.10240466546166696
0.0630912155520519
-0.04088470410773704
0.009783039567048776
0.013311039016577018
0.06492438982182594
0.03593390044982968
0.06372601084309451
-0.023634181423918217
-0.003961375122255877
0.010903796380416013
0.04422044174572379
-0.02392347281007396
0.013162776247721615
-0.009754388588694818
0.056749345488262354
0.054761109180459566
0.00889103775859236
0.09683549661334961
0.16154045100903078
0.14810151527996845
0.17928862613010713
0.20868824892300353
0.2995811942380945
0.17855956554062946
0.26563465845797263
0.36334575918853645
0.33679887442434453
0.34680533058437263
0.4698550414808821
0.4465844076713429
0.42860030535979443
0.39348538424544766
0.3395300365414392
0.3561611218109355
0.3448124655312723
0.39001224250069894
0.2557535834560686
0.22078480259244343
0.24014597646856503
0.22983826491241569
0.18374048258830328
0.11322600485914378
0.1207889379414291
0.10406881524319318
0.10910053470773363
0.058927958145480436
0.0020386757169640543
0.007799422299007694
0.04247705003423171
-0.08801196295013583
0.0894195748177875
-0.04399398297917226
0.045777598014205084
-0.08351870284494162
-0.0036624592423065263
-0.023881330141631123
0.0008515186038660549
-0.029118191719319172
0.030317668005831775
-0.028966993256781964
0.09868263480828893
-0.007569520121763235
0.004456041064080668
0.03152190794189692
-0.04062946154959944
-0.02420284996073949
-0.05047281345594141
-0.05523441702486162
-0.0031046904682264552
-0.015333286349122652
0.030174258968891927
0.0032894864609620622
-0.05828145237696192
0.05071697002178233
0.04014718022045556
0.06768216315964225
0.03975351550572799
0.05677274749942593
0.022596726066246606
0.07342597560695371
0.05563430555986376
0.03242358997472232
-0.002197404255512421
-0.047118428047577154
-0.03328303169457235
0.06425837524858995
0.045637280536869884
-0.04674748533012525
-0.013714376651524404
-0.030296376003585576
-0.00858844950650818
-0.004334802414831589
0.006696543141153062
-0.0012519048227410648
0.06025355211277911
-0.011017904839005692
-0.06362375559927885
-0.00617128899196712
-0.032806183806156325
-0.06910523378416024
-0.07532922552238387
0.04392516782762906
-0.006565965611513368
0.0018578603360184056
-0.012194867907446661
-0.0026267558973245815
0.00510775476271543
-0.013348271286572304
-0.015940710534502568
0.04260852409848864
0.018531046774515204
0.01795955640594169
-0.07253193328887445
-0.037288005901502476
0.04772653043876366
-0.03972995227766589
0.0415495017093821
-0.08253451445505784
0.048039935663167145
-0.020528453092817613
-0.04469860870145146
-0.0027925782442220336
0.029634361187011626
0.02873544320062814
-0.0016748555917605755
0.0032644784149152757
-0.032168989956528976
0.017312164316770434
-0.013510929171025454
-0.0018809136688455
0.044331101298431534
-0.003571042173792269
-0.044259877574353616
-0.054013987746880335
0.07849799631140723
0.06419065519673199
0.04312707993239046
0.01734613340730789
-0.0003578947995584045
0.022122260636373205
-0.02116276152826612
0.06384689267322396
-0.021786900936686473
-0.06387620409903288
-0.001690382883123084
0.0216453777570356
-0.0071599439447573585
-0.018954137248650985
-0.015145722462756086
0.053169503441309475
0.029609901753139215
0.022615627419168935
-0.0030968580635837724
0.009129905063603947
-0.0022751662367634603
-0.04449013846390485
0.017001242767477043
-0.04068546409588391
0.011345420651986179
-0.01803053744812057
0.04628503227046481
-0.06961798940391252
-0.07680701815290633
-0.024425173688138613
0.09080114338727827
0.006091226979557043
-0.037363168640774595
0.0040121030065561345
0.026538489277954373
0.04561590352692869
0.025081601604785276
-0.04843549172031752
0.026782592204391754
-0.060156349502409064
-0.06323209940795625
0.05671534792646992
0.0072416693971355415
-0.023503419511354953
-0.010764017948588589
0.0026632336716846013
0.007383615711713255
-0.026378563154641137
0.0507159326889404
-0.015796919092647
0.03951381054631468
0.06209859075338042
-0.061081210407426444
0.012197925719558434
0.06168360109939862
-0.017758902328413147
0.0010695350841117513
0.050558779104310635
0.040611854371299286
0.06512203054142848
0.038558256934000175
-0.05129370273551184
0.035990661112382916
0.03914613338185048
-0.010155601611700165
-0.030467777761074614
-0.08244886769208548
0.01855240768030924
-0.046268918697743605
0.022911283428358808
-0.019245568817136172
-0.03610663996065943
-0.04672718602792803
0.036566560659193684
-0.025425737839964522
-0.017073539887188707
-0.04315123632280874
0.027275827510545993
-0.07469276188669849
-0.007775658127734512
0.006787340667775603
-0.003722569021249558
-0.035813117215076073
-0.006982562535451939
0.004025602774834803
0.00850615356776803
-0.05884214430850438
0.04604009744797253
-0.023615232510782673
0.02145447282350474
0.0668632821392013
0.01429541688762684
-0.04425163593088669
-0.0034609764497033715
-0.02990203686937404
-0.009146801401699996
0.0453260245833346
-0.062334252038714566
0.002587750603034392
0.057152134478682726
0.04712094462454327
0.03606196658278381
-0.0331871539902585
0.005696521273114826
0.04498134293110345
-0.034307965541721705
0.006354139055331477
0.019845950166727834
-0.014673577041969752
0.06151950426191815
0.09193675479921887
-0.06549365816446659
0.04264030396982906
-0.031156408935184742
0.010562496910121703
-0.004843224742044946
-0.06995902549856224
0.03138411837572972
0.0528004679682113
0.0031526611289509204
-0.016221438185695453
0.006399888123039772
-0.02249798410070223
-0.016881595697512877
-0.020075872535577327
-0.029821005463013996
0.03790462689103807
0.03316093965678261
-0.06237597738435687
-0.0006225874560627398
0.019476826391697438
0.03760373481517108
-0.0397015654853113
0.03498482400689829
-0.06663505468651977
0.007305809008216496
-0.014732513975216155
0.0006097267911368006
-0.02585635982734224
-0.06293423281238732
0.0077629451669063996
-0.034427760290258944
0.0015661400024070153
0.05934066230101841
-0.020177688786163103
0.02747723853735125
-0.024032315568049013
-0.08437672467875787
0.01085903198457477
-0.00803430990620874
0.0066532211546623185
0.08257824150570557
0.08318329495608065
-0.062466397711901864
0.0030917078240630725
0.004074953630749091
0.03471078799475723
0.026502475795813517
-0.008196514330415619
0.03823242935054864
0.03645242803201923
0.025357113260474008
-0.03681576684886133
-0.019364569506133144
0.06443287082440309
-0.0427436725426053
0.06908542513279788
-0.007181567554238808
-0.005822755301276417
0.0029387198836842024
-0.02684113754454909
0.006714315365837053
0.021822939244016806
-0.012289719013244025
-0.01798489533968793
0.08765526204372767
-0.027857140604601528
-0.01003581210611531
0.006079726444507524
-0.018588905618436534
-0.04439490222713508
0.021386295109743585
0.009021429211341303
-0.04442795259614999
-0.0252463279977054
-0.049909436538814245
0.027664354237226022
0.03095134524981802
0.005092389316540548
0.02986178053817205
0.03813952849503242
0.007571354990980082
0.05212938406090378
0.03674146877997122
0.05061778997635254
-0.07613652384718216
0.003126348670124286
0.010935597723475961
0.03175843649494614
-0.054788332372304654
0.05396737161810662
0.011094352044148404
-0.011140831433449103
0.032131793006798075
0.06061367755055621
0.014009588188081939
0.025323391838711053
-0.022978655546028733
0.0055613480490544764
0.10689200140165701
0.027696288457046074
0.07579262668026363
0.1762470489822512
0.12479780209880166
0.15770669260351916
0.1919812454440236
0.27179966882153817
0.25659057329741425
0.3014454567743557
0.2551986060158006
0.321123626163518
0.29326947975691703
0.26860733358863526
0.22805985537777534
0.18431642998263448
0.21138569139113333
0.14524492493360774
0.1469019674943701
0.13633802134934475
0.08610365267211542
0.09915300301326824
0.04742358328002751
0.09082730355293488
0.04512381399138353
-0.00030419259564168355
-0.027149918609781463
0.022722294417212904
0.0691286440800673
0.01175276158325065
0.13192247444695243
0.22303671740163644
0.45178497925373207
0.8457514403739472
1.2072803450928944
1.509093741005667
1.579891800737839
1.416273153825427
1.1367292207820427
0.7725062083682582
0.359833005120502
0.17857929936359968
0.1995147411159653
0.042435530453959036
-0.010718788827821263
0.03758216824228655
-0.013074553617470393
-0.01934713063790711
0.008686197393658281
0.04154380287786802
0.0013803537445583722
0.05024277159457439
-0.021871923019929854
-0.04470141464752308
0.03955364973997119
0.04719990745672388
0.010886354699999464
0.023410371272696157
0.05640209642847491
-0.04580204834358555
0.0071335889548727344
-0.10685029319222238
0.009953230616742362
-0.04807252595096102
0.011638064370978154
-0.028787673359977072
-0.03877018728834047
0.0006821061954209774
-0.046957467827327216
-0.022107864264288034
-0.01925114627423973
0.014300547918495563
0.05832809517903936
0.0030822335584461008
-0.05765316471917801
0.04799253956860726
-0.022606874586339205
-0.013709940840766634
0.015162439723677026
0.03109795326857187
-0.024329314570119134
0.018439974625658852
-0.12778179230208742
0.10911584360256903
0.008594871578518381
-0.07762141526934314
0.008599279085834457
0.002834334202631543
-0.06232321006392341
0.005004258844671015
-0.03921502258215605
-0.03079600014989955
-0.0623895782749277
0.031067272475658228
-0.00036471935157544703
-0.002496917255172834
0.03553913017138802
-0.02475439908443335
0.03920532578505696
-0.01013616586992976
-0.017593252622925278
0.029349743696562947
-0.013550634535307346
0.11317191318839648
0.08643366666527139
0.14237536476061374
0.2156633222840872
0.182837168622148
0.1630892417349017
0.2101190239060382
0.22288871492205803
0.2763276803222341
0.22854733260969354
0.30251949000680584
0.36306369808241046
0.30550028985722316
0.36454808035789377
0.39130948657367276
0.44949849732247193
0.4078735439971954
0.38134442120588624
0.3390187146270509
0.4071979463610694
0.39959965882415727
0.3232202992037227
0.2879895778966338
0.25389241436366017
0.223340319070817
0.19539159027079522
0.1473189330948535
0.10553418923926874
0.17243812838706643
0.18753959386422353
0.0327486580770973
0.0824451383710621
0.09560696837683871
0.04461618405343401
0.08522699440002351
0.03852207101524575
0.010426826493468277
-0.06705391243092815
0.02838624553951583
-0.010238654687558002
-0.014140233428283633
0.006235164282074554
-0.021306746258294342
-0.036152575099343436
-0.030613403800772224
-0.04688658056799939
-0.021953698852062973
-0.0671541130855846
0.011173943261134049
-0.01292563416172614
-0.0050359695310306036
0.0005666059781072733
0.01585710688052272
0.007636270513607517
-0.0088303955124649
0.09310033886461129
-0.05185652664274981
-0.0465820776833341
0.01326011987337415
0.05533769235581622
0.03215372743703491
0.04089720456915626
-0.04893357681279029
0.004356777747496613
0.014692331455175161
-0.0039467467499989545
-0.006693250272431349
-0.06005786500870157
0.003783196851612959
0.018362656293153198
-0.00013561778200005606
0.056114443351782645
0.00994706970868964
-0.008125983689467962
0.0033687292259216486
-0.022378339342065245
0.04235907093603184
0.009834897148502544
-0.02512446062039605
0.07842685159679809
-0.01594497985877022
-0.0061174476823792024
-0.010382165031182595
0.01857116125255435
0.019650765191075434
0.03479735131895825
0.0015218606329674748
0.06904459803063785
0.06580011063095273
-0.026129633835798555
0.035344083227224744
-0.043859401083262715
-0.031254197207045004
0.014759958296880569
-0.03645865062453963
-0.02928488964973205
0.010452431519731343
-0.0414387445665313
0.031113452821764077
-0.060975817147260775
0.04756794578791554
-0.04145260834015711
0.014559217919440539
-0.023804993106087635
0.011612383610886463
0.08037335297847083
-0.04452937156043848
-0.06886716396220705
-0.012171211941119996
0.02814118931768496
-0.055655484287224444
0.018343847086512433
0.08348253637629442
0.004028656160609023
0.04453687732856263
-0.05480578630779693
0.08632040790856092
0.08543301646831292
-0.038324329284575846
0.041305191963399615
-0.030765432237149965
-0.010456294426006018
0.06909619848313697
-0.008678128469394997
-0.03303537312308391
-0.007059779518350093
-0.01890904646140697
0.06175686862413053
0.06305306061514074
0.0008882759023972763
-0.03686238170628884
0.025529912801975946
-0.0668272298914366
0.059856345404844066
-0.05390810718223407
0.014429245948978717
0.033350545492238544
0.06368774600983466
-0.020504372099375487
0.012075273695305009
0.08076277672592827
0.021166127632248958
-0.025106750344413103
0.034398205285505724
0.033456963301329475
-0.01780140880852756
-0.02692551294102003
0.015728140882427098
-0.007009195186050817
-0.011305149494547037
0.0032671733056097206
-0.004324204065976512
-0.007819458223942494
-0.05267510288453262
0.030084946906369522
-0.06426912723231076
0.08468222476344994
0.05110464196395226
0.02675481507172261
-0.01940209316566138
-0.03533707776000417
0.015253663349261816
0.02126375589817018
-0.008326581476796949
-0.00343536673178321
-0.015882488068639504
0.020629318077399744
0.06630833362521761
-0.06623962192080322
0.0395271604678402
-0.007983053111288912
-0.017203864051070692
0.014298303611511432
0.03504548245836047
0.08013497578919779
-0.01364404360160302
-0.01563075508500931
-0.019306551539465363
-0.004111342211482015
-0.005313795394020315
0.020581499148613368
-0.05260543888926227
-0.009948669839728043
-0.05910444714828603
-0.007327577673812468
-0.005632942829486065
-0.010734009803800418
0.042119107780154284
0.09500774717514839
0.0749709975051178
0.046519560616941506
0.033234540895435295
0.044588746120502155
-0.0552062972116459
0.03457402131077345
-0.018058901669578867
-0.051705351556845705
0.05570771422164733
0.012138731549291452
0.09686218636789053
0.016996002616988533
0.032536202478763994
-0.03130718387252672
-0.0207632903993094
-0.015874673924939516
0.015444371978366622
-0.0046869704986790784
0.01133037526203643
0.07402925467184922
-0.04256819796863967
-0.017303206090801194
0.03374998465041649
0.0317617508288944
-0.0974893292875579
-0.005133347399665556
-0.05515014710956079
0.05170958100778746
-0.0030409710533918274
0.024958617483839905
-0.006724775745993129
-0.00954297059256548
0.07065974435708279
-0.006745692560935272
0.026556151537625167
-0.0009236938110398829
0.04369666364980066
-0.011306745832985701
0.09221028444480314
0.014728610461033288
-0.05783276546266948
-0.048832805827342084
0.08074516979953213
-0.0018746291522934366
-0.011678623554707926
-0.09334352528908682
0.01675971776282589
-0.028320892636714796
-0.021798831955146675
-0.00885802748309817
-0.026543618712938574
0.018068137785759508
-0.0033414387053215754
0.059361289864023094
-0.010492560940525008
-0.03604517387575627
-0.024271994299729528
-0.004710592784452602
0.0012704673010685704
0.03946064570571481
-0.060561656121285605
0.020127006437979836
-0.023372835989129776
-0.026781633385983133
-0.018604792578779714
-0.07279723513060178
-0.002934629008768757
-0.005852859058329395
0.029349226642717625
-0.057067504237344996
-0.028277564399483018
0.052664345025602036
0.033496977081126075
0.04570852952463159
0.01375304527183808
0.03056075199780681
0.045750653695352216
-0.08371119583260642
-0.06677611419791403
0.01776886567686842
0.07095864644178643
0.043544664300222725
-0.0103398799149986
0.06592625793198982
0.06678914420189751
-0.008007380257725858
0.05677752334173364
-0.03956520136958962
0.003149371367994039
0.04261539997767403
-0.03232762005503789
-0.012956898863926541
-0.02737151345821012
-0.01428004277177332
-0.018559127266437343
0.002221486027228113
0.04266388805764879
0.006716378974166079
0.07309298705785552
-0.028505633455954676
-0.00783131690869813
0.02363365872156478
-0.041023482853173907
0.017996046482324172
0.06404366056357724
-0.001026978384518208
-0.040770681359252166
0.02789726890691718
0.027866447062655172
0.03398274746380338
-0.011353855784807175
0.03773981395067375
-0.02179676343813589
0.008989497538819781
-0.05613285141468836
-0.04724064639287363
-0.023103766902672455
0.02582485681914758
0.02934106149444222
0.07012031312947196
0.004859997243527936
-0.01601635880554861
-0.03226907737484942
0.07103386139009718
0.05414724181675339
-0.03395409766613449
0.0147107132178088
0.04600317022884543
0.02595546893907505
0.011243319097778062
-0.040855093877467025
-0.01585813686655733
-0.015950939004832403
-0.04101114767715597
-0.0729244312990241
0.015659011943776766
0.1258779935856382
-0.028363997527275572
0.07066785489219382
-0.016470018925298417
0.059151415206480866
0.09381294815860836
0.12142030853198006
0.06355680867852048
0.09585290218757936
0.19227321189334845
0.22846482371964658
0.2684993034193311
0.2567723124354837
0.3185689539704302
0.3972228738800815
0.3459444312293106
0.29122789813555444
0.2996627185536521
0.22750759796402711
0.2906293426053104
0.1768294451761442
0.11842334317756198
0.1627884188603419
0.08286184761466453
0.0324026963243711
0.03792563196843077
0.015334102530463987
-0.005228410874827005
0.022901663602818704
0.007646814101498554
-0.004109750413338281
-0.10274848842674639
0.00887258466267692
0.10614308202411471
0.1835101204675086
0.28268749727250153
0.5007694366858394
0.8779312266950847
1.2444203759585994
1.4987907690833457
1.6495155692163115
1.4930053573651825
1.1136446119635144
0.6721308704503116
0.433573023911271
0.19325350386709017
0.13441930284458875
0.050796836730714404
0.03369940627441861
-0.0012642245538867425
-0.033050371974995475
-0.06380742945018499
0.03068375535797419
0.0010909355924521612
0.030313213376139573
-0.012170755327467695
-0.00689124888067348
-0.099421844617666
0.016075009496705542
-0.030060075714757484
-0.04451572179724376
-0.028075727754996418
0.014916892472325714
0.0046342596536547405
0.06747003635908175
-0.04270052901551761
0.13584549635516377
-0.027972679651932765
0.01884566673176541
-0.022133182130951556
-0.017222487619995428
0.009240906354313325
-0.04529771763781535
-0.04102956403670046
0.06940657452906891
-0.06894212368333043
-0.022258940768290957
-0.04579098345786195
0.009262697008639471
0.013908653802459073
0.025945712829190126
-0.05718884011149209
0.013898796067879486
0.06423307718260508
0.062100679819355874
0.015174453812796812
-0.024998795942619455
0.01838622264338764
-0.07214056880311287
-0.012896345736497845
0.027861151226609718
0.01137363065323021
-0.015014230668023416
-0.03081819655233385
0.02663437865435528
0.012038930057970392
-0.020916210576665446
0.0519266839661359
0.04349112772945405
0.008907483044086156
0.017729357801036218
0.030465894168589774
0.06788448159468712
0.007942005792883018
0.07927216299626445
0.08017127046487395
-0.03348059604564093
0.010793894885882588
0.12859150321037516
0.11887827553248476
0.08475409042269583
0.13842471072068713
0.1640986753635464
0.1964914898961742
0.1691044852211185
0.23046261553805483
0.23121378537023438
0.28285817692213894
0.3150878607436303
0.39668905192871323
0.3661454845322315
0.3983139038703953
0.3841020846103618
0.39827679655293763
0.40474478534465885
0.3164974329865139
0.34615576643240814
0.27550931594844874
0.39357109300154086
0.3532083479850016
0.24392464625056748
0.2636590919095243
0.20603303153412808
0.18065517249892754
0.16005569800432923
0.16244394371629808
0.13564107387557534
0.11246270457564518
0.030134340948390216
0.027863877943422575
0.004471058502019523
0.06650806722738802
-0.004651601434948062
0.04295373578296227
0.0016026548016863495
0.06852352047057779
0.09190853827111754
-0.012521624266665452
-0.04009349064892046
0.009479543694160656
-0.05846013336330749
-0.0522938975583328
-0.006356594624069287
0.01728594065201252
-0.0688040841691394
-0.005094598313661695
0.002870633908984817
-0.03683804827884779
0.013759751351729087
-0.017190767470597043
-0.010257961797284406
0.04065154601702487
-0.03127685193659995
-0.03422447411734463
-0.0376307739276977
0.012339967361858021
-0.08130107538616363
0.01937249259761124
0.008538579801425016
-0.037036201585149656
0.004248800808896582
0.030169550575977092
-0.030275117354717378
-0.044170375505606714
-0.00019760401200878886
0.0166353124963585
0.03704923298743717
0.0425525726426504
-0.030560400357247726
-0.01323929351673777
0.03936195628877653
0.0031229723210611177
-0.016506891277359926
0.06288733712046125
-0.030323916477652396
-0.06178926364669923
0.01743411340202934
-0.03204040852212132
0.001700010342471232
0.024264518469184943
-0.08110125356692101
0.03249201370298167
0.007974144296688366
-0.007006227535585517
-0.03843401837275637
0.008502699399434654
0.06387758270786256
0.0711459827958799
0.016333415696335
-0.022490026780130165
-0.007246569964537611
-0.07601156780795376
0.044551297803572636
0.010851171917410661
0.019014801936803986
-0.06709059328471274
0.051515980749793404
0.032713050094945025
0.004335896847391699
0.08386044375447513
-0.039583309503586454
0.020015343193456023
-0.008738608173146445
-0.01979928293492914
0.04488245049078385
-0.041366469313731544
-0.015462798769757367
0.009805397138189498
0.008484644831864258
-0.016718449613173505
-0.0028598320710604965
-0.010403403858296767
0.05300758148664975
0.06316123928003485
-0.013769222203571487
0.028834135891272938
-0.028728163157867432
0.04730913443293912
-0.009958254640476371
-0.007271431488261523
-0.034643801257518536
0.056734815837760584
-0.0020759978055972517
0.025954215035984888
0.021093015065710576
-0.06283852180176316
0.015490577272155057
0.05705398665878057
-0.03292588883608347
-0.04928813043463622
-0.019190154940508204
0.06599490871422782
0.004375766440027653
-0.05834780643893149
-0.03610193881019152
-5.663560938101323e-05
0.011659230592333725
-0.027906531134642587
-0.018606305841845014
0.05380342195543429
-0.025221943558602706
-0.04149350337906942
0.06456623617798335
0.0237796856679387
-0.01735874698488122
-0.05038302911009929
-0.007238137686892168
-0.018942145663446694
0.02567826484595323
0.026092674907248935
-0.029728946713159333
0.02215071279580483
-0.012587161724915431
-0.06156384345263002
0.015046611911258737
0.07557454790027418
0.0289342987963433
-0.010665221091792704
0.09148394678361083
-0.0070480429065417575
0.017875391519458217
0.042246650004997534
-0.004452976897882364
-0.06317293640041471
0.01778575057761731
-0.06760737801665312
0.0024013361603841023
0.004883522225584252
0.06843788185116301
-0.021637781899083452
-0.0365001663529523
-0.02882424397002349
0.05933169427645517
0.023942942227156393
0.016216997381062408
0.011612507879981257
0.026718297756901026
0.04294539182631468
-0.022551504463940147
-0.08600887383332982
-0.0057236769383079335
-0.03803180455995627
0.07677485229522978
-0.0016950735072321968
-0.07082795953094273
0.026209427608470774
0.0026854007179412786
0.0725155000372885
-0.038098122350196946
0.08628564709368855
0.042674862097359684
-0.010419610300574724
-0.020698664904099058
-0.015462507347965804
-0.03727112941398275
-0.03150116536076678
-0.010860324417806457
-0.05875476986323533
0.007781340928147396
0.03444824943324955
0.0006367147723139874
0.015466156197882518
-0.020119299915011043
-0.06918266022994317
0.033131951973745834
-0.0232447711687384
-0.0177821886515849
0.035404043850535784
0.013109213685136846
-0.04027189530655267
0.05738754613952606
-0.03147420655984415
-0.027646113936770283
0.04974296099733286
0.03959356497049005
0.017484392156772006
0.042095541230917924
-0.03264277720140879
-0.013430337186722246
-0.06238488625322687
-0.009400404874889934
0.05134139505239532
0.056435169212565146
-0.03955753303823138
-0.03841475021112425
-0.021081527190750286
-0.056375514885131255
0.028596515637212886
-0.01173373976500983
-0.02864649787044962
0.01636325714208478
0.03491945543438742
0.014913396750902187
0.043845447919282375
-0.027216517900972074
0.05089871297861615
-0.06853188768673463
0.016464844573337155
-0.08014828489551228
0.05434603229615693
0.014299861198561102
0.04397748876854509
0.029804132859412
-0.0756359701594752
-0.009845599370588083
-0.04333962305479543
0.01172454840491085
-0.03060628279296453
0.06291679065645307
0.0012701491707248001
-0.03667897549206222
0.03337594249246787
0.0034476590929732463
-0.04876135445793522
-0.01573473254046649
-0.019407916659837075
-0.03283305412687131
0.03253683319823185
0.07808660006509938
0.05839272374920724
-0.022409073530014423
-0.03431582140685516
-0.012747588185632628
0.01672837622105097
0.03098473269056705
-0.015478366463346447
0.002324005507142675
0.00764220279768325
0.08216019571017018
0.029048073376584122
0.03118827943599484
0.01658378098905023
0.020404293818521584
0.06499333838427795
0.05457684525633698
-0.02021022305998984
0.037224335289315576
-0.08784324448807246
-0.00790127573552489
0.00695835784832641
0.03320750934787644
-0.043116762686955364
-0.0063844469359259515
0.007998991885745252
-0.08676637278781739
0.03892979409727644
-0.004860928200547215
-0.011644734673427663
0.049832299340309756
-0.04107394496164011
0.02949348543358831
0.05416675219816897
0.02684857432930891
0.011173812260008546
-0.06932948018306592
-0.012115847655088273
-0.0480909851228421
-0.025127510196291246
-0.04571884258701623
0.058386178801929076
-0.00788914687006742
0.015882307865148704
-0.054878466008197575
-0.065742362876056
-0.020412064788854545
0.021969426372860416
-0.01577403716333116
0.006047367582923898
0.035789124354222206
0.04979538100090192
0.006729415007115997
0.011050416182078427
0.024153404211452192
0.044472847625142024
-0.04882557204830646
0.04350748401905286
-0.07608486351158497
0.05251757441658027
0.001657393875827159
-0.008534032127300384
0.04211654023579106
0.005935723243258598
-0.007532896285539601
-0.006494120579581854
0.008352953118253799
0.004942034172575327
0.08229067129472306
0.04995101637091047
0.11576034039058446
0.14706478689234523
0.1792665904946182
0.27741591513689523
0.19489111485726776
0.25121392138306614
0.24620193461867002
0.3378704816029803
0.3256594029948629
0.2569166539550982
0.3957448860449463
0.2615520233175429
0.23795857487416658
0.25429448746368394
0.21072064140718488
0.11265018905427636
0.024513123532013403
0.07676659850074509
-0.0032416527034543896
0.0899004453184411
0.09598256444203719
0.04895793392322169
-0.05099336324901234
0.018103953533150544
-0.002409663770395011
0.12059276113893341
-0.05308080769560856
0.028981238771034454
0.13844419033598115
0.3062211012051811
0.5003801404233099
0.8574796719097798
1.3173727595682685
1.491663306457529
1.6414960826813745
1.4448556230866996
1.0894348667057805
0.6558873398321843
0.4021808181427984
0.17821035216811043
0.09731282804602795
0.07045832438808317
0.002528171782137394
0.05535537304557338
0.08737006882400893
-0.05612977241381098
-0.03885746172568443
0.036363340079167625
-0.035929922173802
0.008501393870000297
-0.03831685013524207
0.019673151971114418
-0.024490821720522814
0.04332057589849094
0.0334978601001462
0.04515029743821328
-0.025670803502006095
-0.021338515452737954
-0.030024594272623672
0.017481185438338407
0.041587040926019524
0.004892794297037858
-0.008064014818138976
-0.056168823704169084
0.06010437955227225
0.012353784247233449
0.006658460984720519
-0.009573425132575643
-0.03807695468581034
0.021781628791241788
-0.03220366714066957
0.0008891965916373443
0.026613818218159682
-0.04022839627173412
-0.019258547643703303
-0.004533855806481043
0.0024644094616207706
-0.09383670700117054
0.05748271327715655
-0.07813637310816263
-0.02112758521272337
0.061707752951610045
-0.003678972937380366
0.003622478640835144
-0.022752340728331523
-0.029397477203504104
0.02584892238803026
0.016602710461264117
-0.008665446224219806
0.06771605881235479
-0.03442135891677574
0.008987143174764022
-0.014232958530014363
0.005271265574789907
0.030883965914223162
0.033480552835526624
0.018796328872312813
0.004157275163347841
0.06580609631847854
0.055268585810209256
0.023604029790051523
0.1047100898197949
0.07467219547064469
0.10384867410097755
0.14895570334270605
0.1286944227639562
0.06814139367037073
0.24066983870430197
0.12747941866730456
0.20892195681350212
0.2749713136272428
0.352689682549748
0.3030554139881981
0.40300588627771095
0.41702762459703235
0.30928793081665473
0.3834565156483382
0.3343952974871311
0.3975268359010603
0.3761062157372399
0.39196804496385185
0.3546387540864323
0.35020230619691484
0.3220648150631715
0.30232386266123196
0.28190202643452905
0.14700813654414946
0.13498463128425514
0.19346550624520303
0.071224909848155
0.09830797076031805
0.02566724901086815
0.05038379861053516
0.07782905455965355
-0.030215652481072094
0.0122326739424276
0.07783587194659702
0.032636936576226155
0.0210858850811452
0.04067399370120951
0.008424917167550918
0.08168544462690398
-0.04172975345174583
-0.03743885863850089
0.012158638525777485
0.021909858062634038
-0.011798894407753538
-0.0008899881475070714
0.022662605297169704
0.01861288547297336
-0.0339129423950671
-0.05866368039739001
-0.029454782004389952
-0.02525997999841537
0.06341809333562305
0.09172470778826296
0.03870575995304813
0.031959313887411384
0.005268277898805336
-0.03803233837689885
0.0522034210645101
-0.024961700499001847
0.0775897952642853
0.02232353959422029
-0.008903503317841586
-0.010803930329484639
-0.014218600414047416
0.00031457026130656657
0.05561856837171897
-0.11890486647545974
-0.04831434833535302
0.03969363472875888
0.03520881403071563
0.015274126126673922
-0.022385450093182775
-0.028580333402669893
-0.011260988652300933
-0.01163435277116667
0.051839495769395144
0.005078641794279659
-0.029239697003277762
0.04429771859117464
-0.06994837400081828
-0.05703787506517823
0.040977785953495646
0.03623053509613904
-0.0635658250595941
0.008399076516563707
0.018426705544867177
-0.020989303224894718
0.018799827089945837
-0.024446639574690232
0.03304763524186841
0.036879782863055446
-0.001867003211453836
1.2811717478482787e-05
-0.03975733759264224
-0.010751754038095473
0.0490221138256067
-0.04186187387516099
-0.008500710038686047
-0.023219927465136684
-0.028166973079992705
-0.010803121949304686
-0.015646998773088824
-0.01414756220537611
-0.03435302192436224
0.08180059163315934
-0.03731974607523605
-0.0068396574945701885
-0.014201463597992419
-0.06931235807049207
0.025749829631886052
0.007733370524732158
-0.09553167524126698
-0.021058589213820433
0.012214041729023713
0.021190267682606807
-0.00632233353694452
-0.01626930536375241
-0.0010887465669830994
0.08576453795603521
0.025741327646041024
0.014537977499751956
0.037060663288146306
-0.008106801563913899
-0.01874291481903214
0.034065210465142486
0.021331551393239653
0.025893394751687508
0.018843182385394605
0.06473915482284394
0.038593640238200534
-0.06082184461654328
0.0067230799438248254
0.016509465818453223
-0.009265261753017234
-0.012735635620261568
-0.006535608295606764
0.07388754416077938
-0.0718160274945663
0.02291812277611233
0.03558045669161974
-0.02347939553388538
0.02565964578328704
-0.0544280098904901
-0.031154402756213815
0.035798285043239175
0.017635318216199087
0.031759776363640656
-0.04886794087016678
-0.04320474495189885
-0.013668548871832432
0.010700248486369763
-0.029952617010584114
-0.06291662200548008
0.005907661909238103
-0.03660938787298267
-0.0460535385224481
0.06799952516098447
0.0306355790496393
-0.013679873376777563
0.027313991565542636
-0.04122207893858535
0.0055023130458296265
-0.020279314050916576
0.0009988361568553652
-0.04600777930047556
0.06521482733616116
-0.05408796151033962
-0.05284559654716785
0.019616009317816287
0.042551128016181314
-0.0006798113504257849
-0.0013565769265309173
0.009184923162923376
-0.018777438476856482
0.0024598473262842408
0.00558592310437014
0.03167964673642394
0.00021022884934956786
-0.0030091924468677164
0.00866568849195431
0.0658585252239429
-0.06865544843925299
-0.009739893555714823
-0.037603865383457696
0.026456604888716446
0.0234826374253272
0.021302670982177713
-0.0007127028087094292
0.05897490494483197
0.0018354019721099353
0.08419732537762868
-0.027140604043902294
-0.03167727847151411
0.024979057954801803
-0.013040031785878654
0.008184023430001575
0.01795030775008574
-0.04199082108202597
-0.02031162336904603
-0.04688322387803847
-0.01704952951320089
0.04771581796604233
0.02038375422904163
-0.012149501119327506
-0.038567673853527815
-0.055713044688110634
-0.06118602741049956
0.027017772113212407
0.025214938848181014
0.01565216404563127
0.07882840179280702
0.0052822116803335085
0.023321822052499663
0.008726047201987637
0.025043374761506414
-0.03134929231367121
-0.003093379099973665
-0.06636199145728668
-0.008800310169404591
-0.026776583538880003
0.05123502253095567
-0.014429577634502566
0.016067541350770306
0.004897647744003176
0.011156809710814224
-0.04309259082941679
0.025858299853276475
0.030069115741330168
-0.008899645074502405
-0.034398382804141744
-0.007340544203240266
0.004670821672169944
-0.060290967499557716
-0.01661562698026377
0.04419723908100516
0.0016090270991270638
0.08576019179281674
0.0007316014951773992
0.02072216961618995
0.02300423528470108
0.0042027088826468405
-0.0253032537889786
0.0999496331624315
-0.0015693362132402366
-0.02608440307296547
0.043336520841412755
-0.004178788531732049
0.01060251244444848
0.022393371150183743
0.06364605329155229
0.03589759885927295
-0.043469245835172705
0.03165117358716528
-0.04009635651128016
0.010003577595790932
0.044564855176508884
-0.042359164299161936
0.0009847974682496514
-0.029081328783351474
0.02805379215638421
-0.012654909769024999
0.02372179700642483
0.03235178371453988
0.005572832852349948
-0.005989704143140477
-0.024079529439541808
0.012577332382735704
0.015271643924453744
-0.09864916908287029
0.032931188235130804
0.014521279049699971
0.06563838574940464
-0.011627904656629547
-0.0006802265863415194
-0.009866658292454476
0.04912211637895738
0.007338890310467479
-0.009960268021090594
0.019545032470815505
0.024366104674749506
-0.01554074950751492
0.014940194877399218
0.025930438688683496
-0.002844721714427199
0.05106592833120595
-0.006672652591886282
0.03766638750827991
0.11407392155830053
0.023097220024560758
-0.014437071366915157
-0.03242226575855684
-0.03636284251240205
-0.01967521250430929
0.03813393872443138
-0.035831913817336164
-0.03546991407584042
-0.01622109011484824
0.029862350692673397
0.041718811888198155
-0.04686194733814065
-0.05707202619129809
-0.0004311191363089392
-0.009696958102757837
0.013356189252618472
-0.02443981011461321
-0.007703972254021031
0.001366581462595872
0.03225323087720745
0.05343240554821896
-0.07783432834744301
-0.019289893930415098
-0.005620786307435765
-0.01410257272295396
-0.006067024161683755
0.03822190229339036
0.07423557447068811
-0.04130726970078642
-0.05574186950842908
-0.011746220197354003
-0.053156897933996174
-0.016117237468644366
-0.03974517096108583
0.0019783718892226257
0.04848660515841455
0.03991136252675985
0.010140003802346302
0.046968602312017535
0.057161296690263305
-0.012196303627254795
0.11913825864028392
0.14702892040497487
0.1324061550287565
0.1684406150886145
0.26288841403298957
0.3112459671059532
0.2933937031632171
0.2305444779887246
0.31698549305141976
0.26454708380981967
0.29085037485653703
0.251573882770484
0.19319139051260636
0.2108398081360575
0.18085706799826018
0.16132828272424818
0.0688844031791179
0.040967346780927706
0.10326603486319981
0.041270664377630904
0.08813371949767723
0.012635108551233022
-0.03178233221482803
0.029474370819463504
0.012768154220073477
-0.013559941510239742
0.04449629166905626
0.10228999220422069
0.20385492890516574
0.3823973169370428
0.6188786421922363
0.9401663683752572
1.3020923493365677
1.4679745025403772
1.6371522337759004
1.3377545502577626
1.0056956806668758
0.6066079796439556
0.3613649120365945
0.11898928952454713
0.07692265627304559
0.07537980791757137
-0.033401470316200596
-0.02245355759657186
0.005614019763961694
-0.01627694560452316
-0.031199599150813145
0.033989490362417364
0.1377026611282551
0.03293523910705046
0.02802136331224327
0.012260423553700564
0.07352737908591833
0.016194834302938343
0.08014612739054922
-0.013494905007787756
0.05285777173260153
-0.016921970260380843
0.057478357816849485
0.0050107978220895405
0.01584261309885921
0.047227560159933714
-0.02934324077436105
-0.0032775642940138967
-0.023966154433078417
-0.020197166095261305
0.022292700695889952
-0.03986227892905439
0.013889927526334025
0.050672195782711885
-0.007880300872849397
-0.09792984296587537
-0.002329704520737038
0.002547989915319898
0.01161877622676962
0.011493384466476903
-0.10636677875593968
0.02348041600028738
0.04724364422852935
-0.005604685404926309
0.0706827774663019
-0.0360030713525152
-0.026703213404243937
0.021885052227721226
-0.0177002777618143
-0.03846788458033011
-0.020676428104152128
0.024071342132466627
0.005339113042857059
0.02129094527378437
0.02026543748140482
0.0036041156676120344
-0.001009592752322484
0.028244569569140836
0.02158029590381532
-0.03596101531139302
0.040950829502388236
-0.04038694704110396
0.09130886665632397
-0.00653786916025869
0.024147969185989406
0.07710618797851815
0.05041984333972768
0.07890845987774145
0.05584294941970433
0.15355655768095997
0.11295402514596382
0.22486371432713972
0.22994308391566148
0.26515038361865134
0.2927059601166585
0.3676841081335975
0.31561381736727234
0.4058963896330131
0.3557565444028359
0.40528419147691785
0.45878251599159914
0.3087401473177248
0.37142219484701544
0.41378834717989404
0.3910163601629296
0.36125620728183633
0.35113211243700493
0.32088395117089014
0.2844028772245167
0.260307223959646
0.11882115689676792
0.1976468796457872
0.12079986442818681
0.10953878868494805
0.07797045845090667
0.050036394680100835
0.08839231385727842
0.05696651231211985
-0.058111222726873725
-0.020609739800807273
0.01398015373030556
0.004802362930942048
0.018723780629688876
0.00745480547034419
0.08025951133510405
-0.024913563291311114
-0.053123648417309065
-0.025931064906724074
0.10739987597974616
0.00831030038564077
-0.07849792397614785
0.052842324938238816
-0.04573610490523472
-0.03329097212505554
0.009709614969466691
-0.04626903914341155
0.013100121189013242
-0.06351026781230348
0.022066235719001796
0.019461223786948607
0.0778117628703872
-0.00538200714079573
-0.03656996130705503
-0.0164139295246837
-0.0043318763062452385
-0.016095996365945085
-0.030031427949048513
-0.059837308824861275
-0.010478743275263448
0.0003238015941401493
0.015165872367997938
-0.019086561324441902
0.03173672207141689
0.04577631708035981
0.0715047637278339
0.019692104402106343
-0.021111695177455255
-0.07119686849105268
0.03917305385489222
0.07079148212468271
0.03660689467647824
0.025995987920450648
0.027106021862244988
0.031808286248213365
-0.06677083813702128
0.007789334857852782
0.005445194710536748
0.02420907556145418
0.03201147184374007
-0.013749313358079359
0.013392926340226404
-0.027823460512716752
-0.005115742154704047
-0.015305820797760303
0.00703659776364958
0.03719785305961698
0.03231388666183038
0.01275996048248052
-0.017655695361679345
0.06446628068512941
-0.009771907997488997
-0.04922241751353948
-0.058214264227879266
-0.025512568436052506
0.05522361363775306
-0.010298054053286168
-0.036177654909775696
-0.07369640284982924
-0.059838522873613215
0.05220864840717128
0.04669320230188229
-0.03591115464603486
0.02093861614436632
0.06813552395599094
-0.027391745705348122
0.04328984549746173
-0.03078118507974492
0.015068342555599122
0.006439114558647226
0.0416025228818365
0.0221385820165603
0.007880326497970866
-0.00453605506995006
-0.008145674477560214
-0.03585941018216794
-0.03838893726097523
-0.003907692416052216
-0.04418529090856456
0.0012376602634073647
-0.004751387797310255
0.008693000527919895
-0.06211514689253032
0.030773724286302533
0.030686614275718095
-0.012982189661776512
-0.018804360286036367
0.0031852024119927457
0.009789982745741698
-0.011813894518411786
-0.02014910877358245
0.036456875271083065
-0.0006662654257652824
-0.006930396875369103
0.034570264019001457
0.015516113995723217
0.0075340011097730555
0.02040224445881486
0.028647713296619873
0.03224216443926714
0.03719505166709463
0.024830806532198345
-0.003614455689506246
-0.023415517561555577
-0.014400015026051372
0.05346737566515908
0.017433914429579592
0.04528441456333399
0.055189256203895205
-0.09082082029017814
-0.030409829430189075
-0.0003915815329188845
0.014682248364477648
0.0005916734525299983
-0.03441265490400665
-0.022068890914805208
0.050705459717069634
0.07546224393152234
0.021724978025202422
-0.0904350411404983
0.10309940798157291
-0.0030739936640812597
0.024246259592670998
0.005444818489888036
0.008097891450322801
-0.011270474225685183
0.007921980350491747
0.0041573086980070985
0.06231312469023834
-0.014490833015171897
-0.07196879652015885
-0.028061570131731106
0.009483072663319254
-0.01662521273518318
-0.015519599344686446
-0.0047692022201448175
-0.004307941904875468
0.007616025918357704
-0.014635953516585493
-0.03952378635566158
-0.003986531243755903
-0.06978054154106192
-0.02181722023668948
0.014513061984256429
0.002287491578380562
-0.03936986968669145
0.003253557439447052
-0.019976760677592957
-0.018706782550091835
-0.010960312184211425
-0.039463267608143955
0.048242380347458286
0.003540731326149432
-0.0026405586694975636
0.06327810056212439
0.005684761939589798
-0.04245951191877872
0.0055197728770794785
-0.012490284894080605
0.002632896869998819
0.0030562232578214507
0.05258448996403857
0.050877223019980156
-0.021166107397246413
0.008975160778071535
-0.0031206537147630904
-0.06519446177635932
0.0068086307126604614
-0.0028157030103856387
-0.020268184350511666
0.026426934864824198
0.008413712458622885
-0.029674805515474172
-0.01465091656038011
0.04772931283641545
-0.006243428889531761
0.06671614217985057
-0.010740256498209463
-0.05656787487128057
-0.013519823439940813
0.025610492414153557
0.024146950490050965
-0.025531838062326503
0.030900504958109455
-0.035202409530980465
0.0723183180400878
-0.01204844655723356
0.002296638161617496
0.019115903626400962
0.02636649717626944
-0.027169348647052078
-0.011619862347783763
0.000508256077283628
0.0023648651263986397
-0.03931297368372158
-0.019355216763011808
-0.05923669254352069
-0.01602009508196994
0.010665752296096913
0.0463127730797558
-0.006351185296885329
0.05041018041833766
-0.05925734310597561
-0.05478986481244855
-0.06797453692905019
0.06564115139803252
-0.06313846728251607
0.030607608718967474
-0.037822754796182
0.07814165011508033
-0.020926563720318325
0.007509908008825331
0.025255649437134414
-0.018827265626351567
-0.012625287981595379
-0.00812475549455209
-8.271217803813926e-05
-0.060774310085244816
-0.0014255216530392309
-0.007660206248120813
0.002850046755065635
-0.027894138394731927
0.008040713934857094
-0.04984061674674534
0.030078074325949455
-0.07531926144234208
-0.019514009627299714
0.0007511238663656765
0.007932053896967606
-0.02408375526392657
-0.06577579113350113
-0.020303212927020732
0.03742761234852191
0.0026122741955915286
0.02884608344105699
-0.010522527466663465
-0.02439216035060778
0.036273930849035414
-0.01292921059597492
-0.02983562388037661
-0.0041661661625827144
0.03928250372440119
-0.032931054258796
0.023334337756391484
-0.04189335007378123
-0.027310541909570104
0.01832973869621324
0.004770252957368622
-0.04540419535128864
0.020152401407515255
-0.025199514919096486
0.02700768641721565
0.06885325936777696
-0.06323747926037059
0.04992239898264176
0.03296080120476218
-0.01593372682538107
-0.041202758027284576
0.03246762011080058
0.0018328127428792645
-0.030561119263206257
-0.06702727181839091
0.00273379164705513
0.005119572885798912
0.057126887131788796
-0.0061325689365504445
0.040802275822619576
-0.0579678495828359
-0.02082429577199075
0.00229044193537252
-0.014854638908311986
-0.040361767312056956
0.006345012622638641
0.012427435571760848
-0.03620513363364708
-0.010629344399165384
0.010065292430745467
-0.02833807178846541
-0.032337438473860676
-0.05327181883819934
0.039582267089525086
0.06148594092391547
0.019952567293038265
0.043907083120141244
0.08767199340931674
0.07935015630615232
0.0854695847394349
0.056051354926927185
0.13419765966081265
0.07456112211286205
0.27018131584045413
0.20808400486352802
0.2466170405896587
0.2864093397036989
0.31065989316751563
0.3420945534201022
0.3189159246845376
0.2860766367329808
0.21486207878141522
0.2943317883397207
0.1571074831222769
0.21962585577246946
0.19292074015889366
0.06623458930201342
0.15652882329185186
0.04756214596413698
0.1000269751295242
-0.020976421178972256
0.0059033592148323745
0.04253394413048364
-0.03302454981452529
-0.0491712602644208
0.024710595177286482
0.03807743186607433
0.05204198237285103
0.06873710682228068
0.3928471522848162
0.7346219638085618
1.0326003191355162
1.3247219707459867
1.559270698476047
1.4937919205475712
1.365800667811547
1.0033743969754803
0.669584559332418
0.2989080395886106
0.12417901627234457
0.0685082737544944
0.03505683711483242
-0.05468100708361577
-0.008134091541474306
-0.027465536624621305
-0.03588225155618261
-0.06492019921514938
-0.058930728080176034
-0.027881628350575727
-0.03165320635986721
-0.01628408720292565
0.03023404759494459
0.055827911505709246
0.05059991799430287
0.014784344611837563
0.05807864243557134
0.02196796499487941
-0.03776174115607641
0.04295303912123111
-0.0494235127574915
-0.06209878268195995
-0.031338559855654105
0.03161533657013679
0.027685749200501715
0.026348410820507928
-0.045270001505887704
-0.0026066288039364033
-0.03766047941072717
-0.004566525397836427
-0.011469480866633963
-0.05148505804764626
-0.03329712648197914
0.0505012494457483
0.030469124764878036
-0.007357516960377225
-0.03082995775323557
0.007331391899074697
0.016124055079943182
0.029433709286118097
-0.02198319522969099
-0.03324527246849492
0.047550337089879734
0.04437891838062746
0.07111487347418632
-0.030676474284984472
-0.021542603753230145
-0.030925682525156904
-0.016583970004736017
-0.06570496829784052
0.018027916326064142
-0.022623156377082555
0.07801195383382087
-0.034359613889814726
0.022124743489754132
0.09372639686489015
0.04208566048504459
0.04675373593054866
0.06534283173324507
-0.010390863333156662
0.12799773563830208
0.03129416702819015
0.05876746146576532
0.07918340713900451
0.11192408198317776
0.10092161123142068
0.17740723678708845
0.2278109898289153
0.22860927786443133
0.19891630780512798
0.2674974651623316
0.3091847613817574
0.3407032125170829
0.38168545983923374
0.3738997038418863
0.38994095778570576
0.38384777154131566
0.382675877271645
0.3976654766064014
0.39266703782579165
0.3940339469167166
0.33935365729110945
0.3027182333749529
0.2815557400996541
0.25020835700000255
0.3213950980303115
0.21947215861666206
0.20545792727318787
0.19486536394039677
0.15918615681944537
0.05624440460779918
0.0648296506950718
0.049142747188664807
0.023195845288570292
0.14743188233125135
0.025070448646671427
0.014030537864850433
0.03235046362581634
0.09152726568694662
0.02696570829449709
-0.06852624305565452
-0.01472667984141135
0.015976227041020245
-0.05323358363146103
0.01928492900778539
-0.05289263787425754
-0.054828150627796564
0.01566130481907968
0.03036990564758555
0.04040785928853326
0.023494479029418387
-0.013888758678191395
0.01842712182091411
-0.03921072442178267
0.016660760909701356
0.02386416687306795
-0.027996308335175763
0.05146642638554715
-0.008002314318280093
-0.019268862616101858
-0.07344329978138535
-0.041635322948283954
0.012724400119334123
-0.0037486038118235204
0.05245160202390778
-0.01973734860655353
-0.025986351834865286
0.07343850290879453
-0.03488456561110698
-0.03392570658903555
-0.04286024165305935
0.06257079818334024
0.07264324087808742
0.021683191816429397
0.028890747252954083
0.0406985113526253
0.008784898237203093
-0.037292963951382624
0.048575295800184576
0.021008606794690812
0.002835307211591401
0.020712489764293834
-0.04394308785118493
-0.008975761884700489
0.012451517326226513
-0.04206357276220096
0.04954151436325926
0.003232215836793412
-0.03988089229767983
-0.044275149108725306
0.004745296000353785
0.07646804190753874
-0.017334858892955638
-0.06223820616971852
-0.028586772884298037
-0.042535042859270976
-0.024770526299652658
-0.03700150666123183
-0.0326669644749496
-0.026056692762326656
0.04329966477192955
0.03222727363916843
-0.06383789471671858
-0.030706641854760307
-0.004260214020593096
-0.015571794447829322
0.015410328209074363
-0.021085240345657834
0.048559978990379005
-0.004091708628848566
-0.03449623348413736
0.0004567082329500418
0.027932876889796725
0.03772181569776079
-0.06400843368216698
0.04067951157060569
0.035806393351304845
0.07417704055390054
0.010031575609802222
0.030288982441265266
-0.03736465048773982
-0.022013694064118097
0.05662696003723554
0.04322535235251776
-0.002724096612652039
0.08217676357634611
0.019576582093837117
-0.013170471364266207
0.07376505755343696
0.026392611132154693
-0.05861091976578102
-0.07651850624495468
-0.022447080393828544
0.05453783115656151
0.0765582719683503
0.02867715217117652
0.03921036443637628
-0.02201773709161062
0.04382836279268489
-0.04692460889075195
-0.042467460702874923
0.01336013791153687
-0.08172303913954057
9.8535774081869e-05
0.0977886803400946
0.03435587438639448
-0.055646937189922266
-0.03160622431780894
-0.0038724745310965386
-0.03162719397007048
0.08633469949814483
0.06294278696648925
-0.045607029662207366
-0.01755686221445582
-0.07243879437497071
0.05655743353562196
0.06280078448062287
0.00937060849515065
0.016130877931941144
-0.09491823665549803
0.01652744480260428
-0.011610329107271966
-0.0012591130275323137
0.001717158175531998
0.00714724387213265
0.036114993770844185
0.1031925598373491
-0.024119340588747363
0.026884172746965716
-0.024721094348657557
-0.026616453074517505
0.0004642679616818469
-0.010074053307498245
0.0036511111151662583
0.007613167934314017
0.0023235579163312335
-0.0028350349297474185
0.018759633560526064
0.00374398938738546
0.0669400607393555
0.03785497869988737
-0.06349986510321971
0.04049982576710331
0.01002507142029222
0.06877719578283488
-0.0293455082840621
0.030809006867504613
-0.05650597160830892
0.0970011825196827
-0.005814721386587135
0.009490896794421137
0.03555012049647141
-0.02676197324227604
0.006942812441130557
0.030070025439924496
0.007302290418109175
0.047841354796642054
-0.022390242701620627
0.03529404912393134
0.044488416805796904
-0.011463645500687021
-0.01183941496697006
-0.0009822252328096502
0.04314869789585561
-0.0589229117864579
0.08342918199837727
0.05855730025123046
-0.017132714225232853
-0.036018142083264613
0.010842660921296146
0.09988462206308053
0.11139419261893847
-0.060221592278194715
0.01903523165950313
0.04467510597242515
-0.02026280896368431
-0.05068665810459853
0.007536035303957104
-0.02719528259501131
-0.03563390058739014
-0.1662947580118669
0.061929659639704
-0.007440582047713823
-0.05541757863001962
-0.015957871458746803
-0.06502770294411028
0.006426690062922263
-0.06361429946774458
0.03699702302337372
-0.02362619412636271
0.04911126245448088
-0.0019910167665477367
0.01686702873789173
0.02343129157163151
0.008226374379389978
-0.007751109448388169
0.02371383771018662
-0.04607534369227855
0.043631706134190366
-0.015933067779975198
0.017982738745394272
0.06564372995484642
0.027210740625927588
0.07632514788603126
-0.002423006312598077
0.02353139484988047
-0.002134907387441877
0.004122185588310738
0.0035378327253258375
-0.02408439918245381
-0.08487364894556843
-0.006486763061318065
0.058845838214697084
0.005717124466478076
-0.11573548439334232
0.05925994860505089
0.0042335916912473875
0.005973400218408313
0.05255906980037243
0.01806480258345016
-0.014707915474559758
0.00027434392647912836
-0.03303249923318746
-0.07308738657334492
-0.010632543569607371
-0.06024956652463624
0.02025045847372626
0.0320618417782632
-0.01188922714462907
-0.04262926049044737
0.024921624905106833
-0.00016259375769356787
0.018203192883134017
-0.08022471470218513
-0.0055764265036881335
0.021418375659014516
-0.05187428843959703
-0.050840627117341775
0.04304398058135509
-0.08769387220307161
0.000800408967809634
-0.045135065480427033
0.019779859267901323
-0.0280111593288223
-0.06294743739013697
0.029485833303848432
0.11385263187642167
-0.03788523101456869
0.024985594311387617
0.03369423287228454
0.03851927694634927
0.034843461360789876
-0.0037760214155522476
-0.0040465313143475835
-0.07575909226694227
0.002678609654802196
0.0036186916998770064
-0.05297799358771989
-0.004628815626672532
0.0016741854731120232
0.07321512690398511
0.004224229074069653
-0.004954045804137717
-0.0590724696430897
0.03591551177309751
0.02322860235607475
-0.07176369789495088
-0.023411615909360504
0.06020588699924348
0.02563102599070551
0.008053191805408595
0.036808584617076416
-0.016898746724536486
-0.004229126115650308
-0.08768318631627742
-0.0557916944246401
0.0018211476746936414
0.03047248178599407
0.05890077600932105
0.02013016148144907
-0.027588010345024956
0.0401633215135826
-0.00032317993419895153
0.07154080573778024
-0.05057154984731119
-0.012400873241461496
0.05606913507419846
-0.02604422192346584
0.07299679836273365
0.03837281524303641
0.017799806095852324
0.059453782053198956
0.09797820894834001
0.16111927290407085
0.19072867975527708
0.15601256976151825
0.17048760983438477
0.15733333378943348
0.2283317828778586
0.3057657527942424
0.3202517498732419
0.29325707157103875
0.30737834700206956
0.26695142552371903
0.16154958306141842
0.23601218090280732
0.2822749233610179
0.19315375451136108
0.15617849916402674
0.14850444690292847
0.06451551942671303
0.0035066096527773677
0.06344207314075449
0.1251147937108106
0.012758073642740874
-0.03783024987417946
0.005437716198760506
-0.044642718753222274
0.08829010476008001
-0.05487609908031968
0.10733534400625053
0.15345052731920267
0.2836185668900179
0.6953835536619268
1.0299845751710228
1.3404529452134868
1.6316510998997664
1.5301016088998554
1.2675231999255523
0.8952139008716218
0.5428199169582579
0.2869581087850749
0.19836861074434617
0.06087410153414162
-0.01625423200815277
0.009354066414986862
-0.014504373515615496
0.026195698252479842
0.007740212119577714
0.020850329077994435
0.016902633718084398
0.024366962996260556
-0.007216866531103725
-0.005257854750133365
-0.07959691762085558
0.0017923663695440205
-0.0005020440283614199
0.03346847285979575
0.04648829986041906
0.0010814046949840308
0.024972822818401758
-0.014208679349149225
-0.021021812654041055
0.021331612922380526
-0.04401719516325714
-0.035843535116023104
0.04026785007895919
-0.030544031753636455
-0.04293689198452347
-0.018147894502314504
-0.07492325619615722
0.06556464658416275
-0.021763141587770332
-0.010045915488236894
0.08237134314974487
0.03460614394718131
-0.006501629098438341
0.036857071405734736
-0.042920676919932094
0.07747299333881622
0.04924419636178632
0.025071694163823783
-0.025317262982064614
-0.008209109481756051
0.10363124659737614
-0.040211878293312214
-0.022989440128300072
0.03565521929206724
-0.010643111781455723
-0.008430665077389555
-0.017086655845409367
0.004699950929173238
0.023290904720437388
0.005509171979268722
-0.01788792987650045
0.02685858570816377
-0.004933167898888785
0.07066112852071799
-0.007451323966159561
0.03366421976629427
0.07967527140795305
0.03949238965021474
0.0061721919556819785
-0.004271248249169975
-0.008776539966755106
0.09937050772471899
0.16617647438407776
0.09381411586257446
0.19187773426686544
0.16629367493194552
0.19373691271863835
0.2585032295504668
0.2504555330291256
0.3344450459384676
0.2969745642086417
0.3436295968478796
0.3797888901766006
0.29381275668777845
0.392099118105421
0.4040540571064425
0.4458165804966152
0.38762930637407167
0.3849826091363182
0.35031685926319295
0.33374183061163126
0.27991215804529695
0.36902978133249786
0.29514228769120526
0.21353433526768706
0.25494028782052114
0.12147786230058044
0.22316070234496566
0.14757096284041354
0.08239287335262319
0.11959489815746928
0.12473522473760391
0.058973081011746795
0.03358984331547105
0.032451307738402616
0.10593222406670673
0.051511232895931985
-0.0781439085891756
0.019629613332585994
0.038789637881690986
0.024215257008466187
0.04060094482406129
-0.05506973482132267
0.07892271614191516
-0.027173506017065342
0.022839653615826943
0.00884944292586538
-0.01653949142901647
0.03553445013179466
-0.051670161796697936
-0.024920902369837142
0.04136652941960163
0.07189627225140711
-0.010590988067489936
0.02054974161156009
0.030899677773903483
0.03272120236208867
-0.011891537125092593
0.002920664804844857
-0.04255545528403669
-0.0478603295168639
-0.08003823100307392
-0.044126809252569094
-0.029365868219031862
-0.002998544794410426
0.0061271434884346545
0.02602607622317298
-0.032250242007708076
0.06884251411494252
-0.02482203179382655
-0.023798897817024232
0.04250616730820453
7.770072794281141e-05
-0.003562091828911799
-0.05217001260369016
-0.04370179316556962
0.018559230141259448
0.039054400820752976
0.026617882279218394
0.07044810278363828
-0.013721696700948078
0.03475752573472482
-0.040642378012532565
0.012137612886361933
-0.03179485771841563
0.003412265642467941
-0.00852501082186769
0.004811963503411587
0.008495280805732449
-0.06477362903005048
-0.047363112123263995
0.020730905103223334
0.016306997253066988
0.025334289228131173
-0.03011138085318458
-0.10833711575885073
0.024386023236949973
0.04394682702272033
-0.006371553628140414
0.018254294877464283
-0.031975662610807074
-0.03660663957615231
-0.03241932201428049
0.04793368290285456
-0.012328925168971952
0.008640002471746748
-0.010819055563694464
0.016548879870831527
-0.07019999826931306
-0.018392021268686245
-0.041085263493844545
-0.04891932669551261
-0.04449170235499542
0.08781004890487332
-0.002943003481329923
0.00728477225852621
0.015269721421840448
0.0014343734347134391
0.02132412900604536
0.026371998021675717
-0.002516624290608925
0.03916296855582098
-0.006409610436027124
-0.04694362567479804
0.02830719349211798
0.02648117094466809
0.06461825129751905
0.0779003679059856
0.06725645690112435
-0.0011171083971946534
0.040622620778800134
-0.03819658813916123
0.03697689795622813
0.011059860931227902
-0.03276003895150441
0.03896338101988157
0.013481208423481567
0.012546570037282455
-0.03657323298201436
-0.03289515083540356
0.04021350373160426
0.035036650727504004
0.027146571309333064
-0.06838528261411417
-0.007194960376230823
-0.03939680595916752
0.01772270629688552
-0.02401006908870476
-0.017442816323361133
0.05931949413737216
-0.030407750657757658
0.0021171523948336694
-0.02184001395722314
0.11384366483619482
0.047409196797215475
0.025389503583337466
-0.0023553448222786246
-0.004996226203410763
0.0278409235023421
-0.04141402336510901
-0.07348905450902261
0.004769114744079322
-0.03556580937275347
0.015162201254587834
0.02059579607968736
-0.009211169453633284
-0.011658306885236391
-0.015534894871505514
-0.03564554396855942
-0.03621127645604532
0.0014289050932001363
-0.014411665837823063
-0.054836427417788575
-0.028788581973114992
0.058777551760796874
-0.056200895996957934
0.025114778910258408
0.06590716019777189
0.015977264288705682
-0.01876665296098525
-0.018458697040595808
-0.07980481015117519
-0.020610635855024675
0.008285155442002246
0.03813114318353949
0.0653305532252031
-0.04703424841293731
0.023455792857571767
-0.03320281557551691
-0.024050752831403836
0.0663706920615012
0.019131222076339584
0.044198387533575516
0.0028825551963125484
-0.030582073175466438
-0.05210782656290415
0.03209638375354197
-0.058839869303882526
0.010396767400731134
0.03138249370874209
0.01708006467934868
0.03765356745316214
-0.05346449954210874
-0.0162262678132795
-0.03303610871406136
0.021024359996510724
-0.027898063247405954
-0.003096628577721413
-0.03557325696583329
-0.010019879730084051
0.07936560446469346
-0.08382245498258213
0.04347507124149695
-0.001317433832515653
-0.02127943695097299
0.021969776354014425
-0.010175385974680547
0.031244669080130794
-0.047141354280254365
-0.027141771705716328
-0.0011111077354832746
-0.02906474997617949
-0.031924465901716034
-0.0012436403382173682
-0.06508679677801563
-0.030551394479669553
-0.0571329969842329
-0.008769909857912778
-0.04891876188278018
0.004567182186457391
0.026158839770390505
0.023140676230592554
-0.02519213262097589
-0.012397745068764588
-0.024254677470945462
-0.0218599673094191
0.031872834884219804
-0.02917684822191709
-0.043775139724197325
0.04544693488659757
0.03810916860433637
-0.012798033868268308
0.003621877004781969
-0.0017920589595678063
0.00982087175986028
-0.006682930608065955
-0.014527181652861501
0.03533128522697099
-0.003162408489830987
0.010934894437442895
0.06904689722195002
0.017874380714454914
-0.03366199424789683
-0.021621527459086926
0.0472946788490464
-0.046551969580326945
0.014035701199679063
0.0767198250125298
-0.0969469205298286
-0.003742407910615724
0.020212219468736678
-0.005696725630359244
0.01079876760135542
-0.07418809825342192
0.054961105976753695
-0.01662646964846851
0.03601308202424868
0.08239619676805986
-0.0057101235604476155
0.03785585204206256
0.018653982360465702
-0.004165675230444903
0.04071916576268782
-0.018377875857285144
0.052762816921082784
0.00010180995485465838
0.029321838817565355
-0.0022368737592148185
-0.024198324254366792
0.013219543036605122
-0.08129153146814662
0.018362245079491284
-0.043155758863723054
0.015749108904124735
0.05139956826741593
0.03462634414902881
0.009381187124938477
-0.020894653956300413
-0.06119947982418105
0.005704688974218329
0.028499413376077615
-0.05570174562344845
-0.0638168149861842
0.010825609563370206
0.002005852738677452
-0.03914306493877365
-0.0589517328890241
0.029126235728765472
0.024380235240928964
0.04553951656641433
-0.03457200991572381
-0.03635241364740838
-0.009323562584266865
0.03817458098940569
0.05421856079494284
-0.01783328904261708
0.03558623669832262
0.1069749062037587
0.04544235175622899
-0.04264459148496272
0.002743682234435775
0.03386747142070362
-0.029465425223733757
0.036785263536173465
-0.0023899814949164453
0.06210645434571257
-0.06195702614805646
0.022173198277541894
0.034658488984522784
0.040658661227047546
0.00267417775043351
-0.0037765649016739938
-0.013201477002047879
0.03089139091966617
0.002768810144611534
0.021600353242398288
0.06620605406362778
-0.018828454797959162
0.018526387600571407
0.06036789538211513
0.0033621367501302534
-0.025995748291239497
0.03295141035790008
0.0452061654844226
0.025771890997345604
0.013488058172696854
-0.0066503149450015606
0.00764099535285278
-0.014837515205341574
-0.009675666320728686
-0.054413073205967034
-0.045207614873201164
-0.003393855830172869
0.022590717346314956
0.0689276358055752
0.0365925522352427
-0.0034122066974707557
0.01940819692400172
-0.0794821467109465
-0.0035907691714084362
-0.0018793324893669411
0.05082276789986664
0.03806949873180559
-0.013682113114204173
0.03789975762191811
-0.04074108214936273
0.027329753180017416
0.009951149749395016
0.04452338418352664
0.07026995058260947
0.06834092040404868
0.020062066368264
0.013074403482949151
0.04678402964845027
-0.008264438281959982
0.024650560355631557
0.003746460604632306
-0.0454674561258895
0.015599720251647306
-0.02623899481296029
-0.04677097228849199
0.00034616320230203073
-0.029110915855126294
0.014340066829175453
0.005207207283314217
-0.041860307978064414
0.0024478875805506654
-0.0471257926705777
-0.03770554043856237
0.03582400493791827
-0.0019370716986161233
-0.029816397709091363
-0.018499798233542003
-0.04518496024403043
-0.03860283348283331
-0.03305790753747335
-0.04281865774928161
-0.052048716870200344
0.03639719811382733
0.0055949288052917975
0.0168374618593618
-0.00047557518026906747
0.02208294126618476
0.05532981657716363
-0.05067771663097739
0.031816672128206415
0.04637514538179658
0.006196093106996405
0.08468435869992988
0.04345940184109393
-0.0234478880710765
0.007553249787099154
-0.012752557701279251
0.08452720900432001
0.004082005051974376
-0.04271788298122547
0.005628668306749122
-0.05427213175602231
-0.04263977796894675
-0.00672975664789107
0.018439695873846293
-0.03893005925772348
0.022539454591892976
0.035191770547301895
-0.031005333687823024
-0.07338362996652374
0.009343266235385816
-0.013999733081251948
-0.03490797103394956
0.02285583596751158
0.0605336051438734
0.013609678359901914
-0.014613575679659093
0.035951921516091744
0.03279259155288716
-0.07755303848232466
0.002913303508365823
0.03121251551444618
0.016418177421128503
-0.010969420643934556
