time,amplitude
0.0,1.2789612874945626
0.0027785495971103086,0.9825621739443456
0.005557099194220617,0.7665883825425741
0.008335648791330925,0.5957001581866946
0.011114198388441235,0.5285500742484744
0.013892747985551544,0.12936586900639302
0.01667129758266185,-0.09373584429892133
0.01944984717977216,0.26985456054073903
0.02222839677688247,0.17116750783104243
0.025006946373992776,-0.06650184936308808
0.027785495971103087,-0.0302843822989926
0.030564045568213394,-0.02848219097757051
0.0333425951653237,0.0618840373816195
0.03612114476243401,-0.27120717985191667
0.03889969435954432,0.053908180118584274
0.04167824395665463,0.02619479110689312
0.04445679355376494,0.030710170431189773
0.04723534315087525,-0.07834842021842664
0.05001389274798555,-0.19050806564697975
0.052792442345095864,-0.06743018087974177
0.055570991942206174,0.016975096296510575
0.05834954153931648,0.15756164156392483
0.06112809113642679,-0.16798422534703755
0.06390664073353709,-0.15402043500606225
0.0666851903306474,-0.124747142148553
0.06946373992775771,-0.2371015550061667
0.07224228952486803,-0.043195908912229734
0.07502083912197834,-0.052197183614242144
0.07779938871908865,0.02798787220152422
0.08057793831619894,0.0038649750959851097
0.08335648791330925,-0.32902540934409874
0.08613503751041957,0.08561292148392945
0.08891358710752988,0.26625406472765784
0.09169213670464019,-0.0811802887039829
0.0944706863017505,0.04424869735351739
0.09724923589886081,-0.009608746336172992
0.1000277854959711,0.02149336855047175
0.10280633509308142,-0.1932906696209065
0.10558488469019173,-0.07886178075995409
0.10836343428730204,-0.007821552625642878
0.11114198388441235,0.027502793642987397
0.11392053348152266,-0.07257091604709155
0.11669908307863296,0.12467437134477484
0.11947763267574327,-0.06681785165526133
0.12225618227285358,0.27337575300317246
0.1250347318699639,0.05028456138116513
0.12781328146707419,0.0394885679786385
0.1305918310641845,-0.10433561506143489
0.1333703806612948,0.022074197796248397
0.13614893025840513,-0.0658563946101064
0.13892747985551543,0.2895146165954861
0.14170602945262575,-0.08268939640887923
0.14448457904973605,0.11267167075008094
0.14726312864684635,0.016476410697833833
0.15004167824395667,0.054176882685674145
0.15282022784106697,0.09035292631720077
0.1555987774381773,-0.0239034934569034
0.1583773270352876,0.2903065722823164
0.1611558766323979,0.009291656868105853
0.1639344262295082,0.10987295176819442
0.1667129758266185,-0.3923688881012423
0.16949152542372883,-0.08487790694227818
0.17227007502083913,0.22454872904905376
0.17504862461794946,0.07791486474418444
0.17782717421505975,0.05689913003488025
0.18060572381217005,-0.18656783239278368
0.18338427340928037,-0.24178527636883415
0.18616282300639067,0.0651504376072478
0.188941372603501,-0.19597260804115946
0.1917199222006113,0.10061648528694804
0.19449847179772162,0.21143275512741622
0.19727702139483191,0.033105196219169394
0.2000555709919422,-0.20698173925046423
0.20283412058905254,0.04821223627592337
0.20561267018616283,0.09185202348228796
0.20839121978327316,0.05631157035510079
0.21116976938038345,0.1976869574941435
0.21394831897749375,0.1494752626534515
0.21672686857460408,0.1939318419358142
0.21950541817171437,-0.23179390677586065
0.2222839677688247,0.1432569695689727
0.225062517365935,-0.1483254270694202
0.22784106696304532,0.06890910767631313
0.23061961656015562,0.30783198816781443
0.2333981661572659,0.29915662122382547
0.23617671575437624,0.12127934622219826
0.23895526535148653,0.37988362491547234
0.24173381494859686,0.17527515886851083
0.24451236454570716,0.2499952745694991
0.24729091414281748,0.18469739943626406
0.2500694637399278,0.23430073742939173
0.2528480133370381,0.29787302261655324
0.25562656293414837,0.3546707004566943
0.2584051125312587,0.3863214176484785
0.261183662128369,0.15506514944193622
0.26396221172547935,0.5493351784394372
0.2667407613225896,0.2701650016924689
0.26951931091969994,-0.023336015160512924
0.27229786051681026,-0.06882634232137272
0.27507641011392053,0.12020543351484057
0.27785495971103086,-0.06864498023388328
0.2806335093081412,-0.1825554600340204
0.2834120589052515,0.008407699437822602
0.2861906085023618,-0.0954440036357255
0.2889691580994721,0.1265931819528901
0.2917477076965824,-0.09250048102387327
0.2945262572936927,0.20544889133144892
0.297304806890803,0.3181423990412637
0.30008335648791334,-0.12634152041413946
0.3028619060850236,0.20130671698461758
0.30564045568213394,0.01114829404915998
0.30841900527924426,-0.13856579835925226
0.3111975548763546,0.04784799591072229
0.31397610447346486,-0.3244092984061947
0.3167546540705752,0.04265739105268368
0.3195332036676855,0.027198096625329068
0.3223117532647958,0.14047907547505392
0.3250903028619061,0.12176646814506098
0.3278688524590164,0.08705096746166308
0.33064740205612675,0.0425999458430273
0.333425951653237,-0.20704782940471175
0.33620450125034734,0.14571796909387758
0.33898305084745767,0.009697529591866448
0.34176160044456794,0.08971574987452756
0.34454015004167826,0.011945409628402305
0.3473186996387886,0.00390649398826381
0.3500972492358989,-0.0768705188050147
0.3528757988330092,0.24397312986804925
0.3556543484301195,-0.20733832493144255
0.35843289802722983,0.1471442990056934
0.3612114476243401,0.2515219258963804
0.3639899972214504,-0.06783140991697156
0.36676854681856075,-0.20480422095460926
0.3695470964156711,-0.045422508044182255
0.37232564601278134,0.23416439230381125
0.37510419560989167,-0.031585910639377074
0.377882745207002,0.07751465500535727
0.38066129480411226,0.2381254400353397
0.3834398444012226,-0.006714090792787078
0.3862183939983329,0.05904301825882163
0.38899694359544323,-0.020397080489370476
0.3917754931925535,0.34487696930991546
0.39455404278966383,-0.16528605806233362
0.39733259238677415,0.10906803202620405
0.4001111419838844,-0.030209275183559613
0.40288969158099475,0.07628561043047542
0.40566824117810507,0.14578336935921848
0.4084467907752154,0.047074475434330285
0.41122534037232567,-0.3284987262179627
0.414003889969436,-0.08152346400134707
0.4167824395665463,0.15707301178217523
0.4195609891636566,-0.030493745294264872
0.4223395387607669,-0.17454873822165887
0.42511808835787723,0.2202221232187518
0.4278966379549875,-0.05184205251115474
0.4306751875520978,-0.1410603182130112
0.43345373714920815,0.10200338296151032
0.4362322867463185,-0.22516739730771665
0.43901083634342875,0.08657461863842585
0.44178938594053907,0.04725016352022228
0.4445679355376494,0.13024816198585826
0.44734648513475966,0.006236410061299331
0.45012503473187,0.14987754094674455
0.4529035843289803,-0.1308148602291114
0.45568213392609064,-0.024561036712782532
0.4584606835232009,-0.012816813593966317
0.46123923312031123,0.21574518750528296
0.46401778271742156,-0.08593744165091498
0.4667963323145318,0.11475080468925418
0.46957488191164215,0.28489641750159816
0.4723534315087525,-0.21410038364326406
0.4751319811058628,0.1572983068166888
0.47791053070297307,-0.3655135147069953
0.4806890803000834,0.01047669108926884
0.4834676298971937,-0.11495301740399602
0.486246179494304,0.3278601055486006
0.4890247290914143,0.04302181223743317
0.49180327868852464,0.1595470507188177
0.49458182828563496,-0.11255882290935759
0.49736037788274523,0.09562366999376574
0.5001389274798556,0.0026787902535270196
0.5029174770769659,0.09504629214969436
0.5056960266740762,0.027347558453793698
0.5084745762711865,0.05954074813552734
0.5112531258682967,0.1308945373310603
0.5140316754654071,-0.012798273460818415
0.5168102250625174,-0.07406663139146902
0.5195887746596277,0.0009652675535706947
0.522367324256738,0.10291881837747788
0.5251458738538484,0.09164235849859724
0.5279244234509587,-0.005778228079489276
0.5307029730480689,-0.1924955630726515
0.5334815226451792,-0.0871815766152537
0.5362600722422896,0.04664963291162053
0.5390386218393999,0.025997581114359722
0.5418171714365102,0.11429088972609075
0.5445957210336205,-0.18401798069731692
0.5473742706307309,-0.12083128157281511
0.5501528202278411,0.15033931168126932
0.5529313698249514,0.32223970810666897
0.5557099194220617,0.22660304707121273
0.558488469019172,-0.27954194861396975
0.5612670186162824,-0.1437031161224304
0.5640455682133927,-0.05069907559090868
0.566824117810503,0.017409332311545275
0.5696026674076132,-0.21815133434507372
0.5723812170047236,0.01476696996888791
0.5751597666018339,-0.011507556570350843
0.5779383161989442,-0.06606984254703005
0.5807168657960545,0.048657821017495335
0.5834954153931649,0.051926221624678186
0.5862739649902752,0.03538022135260567
0.5890525145873854,0.24003506986969614
0.5918310641844957,-0.36026626923850935
0.594609613781606,0.13263290917026108
0.5973881633787164,0.09006795549386044
0.6001667129758267,-0.1662238299965303
0.602945262572937,-0.0018004584059508842
0.6057238121700472,0.02844476392748817
0.6085023617671576,0.16377949300575706
0.6112809113642679,-0.07803613776745046
0.6140594609613782,0.08726470083859099
0.6168380105584885,-0.0014791746105557524
0.6196165601555989,0.04158325149785752
0.6223951097527092,-0.05926930575744257
0.6251736593498194,-0.07438713166348299
0.6279522089469297,-0.06682036621588268
0.63073075854404,-0.032081569921112725
0.6335093081411504,-0.20819453730481016
0.6362878577382607,0.048769980519167866
0.639066407335371,0.06852439548386136
0.6418449569324813,-0.21717518436073058
0.6446235065295916,0.012937643184623954
0.6474020561267019,0.1742847833248268
0.6501806057238122,0.5348388401383855
0.6529591553209225,0.6331304019656648
0.6557377049180328,0.8859908741330932
0.6585162545151432,1.1901828468428075
0.6612948041122535,1.338551486086791
0.6640733537093637,1.090300535428347
0.666851903306474,0.8687718206727015
0.6696304529035844,0.6965786831672571
0.6724090025006947,0.5383388459881411
0.675187552097805,0.3107004924907252
0.6779661016949153,0.09959548325004698
0.6807446512920257,0.07415611164462937
0.6835232008891359,-0.12253636481601247
0.6863017504862462,0.08509413303417472
0.6890803000833565,0.12638304785726798
0.6918588496804668,-0.02554317990826767
0.6946373992775772,-0.3059733561927576
0.6974159488746875,0.4137948246169307
0.7001944984717978,-0.28691031789690924
0.702973048068908,-0.14161592121382804
0.7057515976660184,0.06498190428448836
0.7085301472631287,-0.014194416835105122
0.711308696860239,-0.023251382845352803
0.7140872464573493,0.10202510122430011
0.7168657960544597,0.19123949109265195
0.71964434565157,-0.06820236065772603
0.7224228952486802,-0.14861288968662092
0.7252014448457905,0.18322048731259752
0.7279799944429008,0.12219476262622275
0.7307585440400112,-0.005326649173768024
0.7335370936371215,-0.033981811127280145
0.7363156432342318,-0.011721332507806177
0.7390941928313421,-0.12464254125046746
0.7418727424284524,0.18025581613195535
0.7446512920255627,0.2068265306106959
0.747429841622673,0.05780117182486924
0.7502083912197833,-0.02038555924629643
0.7529869408168937,-0.006692374028778171
0.755765490414004,-0.05903628304036438
0.7585440400111143,0.03441501821574411
0.7613225896082245,0.13991290044554971
0.7641011392053348,-0.010205423298134949
0.7668796888024452,-0.09400562690790376
0.7696582383995555,-0.15705192020101755
0.7724367879966658,-0.1429670094197508
0.7752153375937761,-0.4074133324367383
0.7779938871908865,-0.24795853752441474
0.7807724367879967,-0.028248480593570283
0.783550986385107,0.046464190001622135
0.7863295359822173,-0.037913618081374015
0.7891080855793277,0.04388076343296691
0.791886635176438,-0.04172854250954168
0.7946651847735483,0.04909612293729347
0.7974437343706586,-0.03483433955981344
0.8002222839677688,0.0865208687358027
0.8030008335648792,0.0020127276745409836
0.8057793831619895,0.21938800822661056
0.8085579327590998,-0.1977998210877036
0.8113364823562101,-0.09470261703834282
0.8141150319533205,0.01756919626944643
0.8168935815504308,-0.22336837205878643
0.819672131147541,0.09937029359517283
0.8224506807446513,0.2373093898989968
0.8252292303417617,-0.23829609250510875
0.828007779938872,-0.07722742566561637
0.8307863295359823,0.08674693668355929
0.8335648791330926,0.10527820766111194
0.8363434287302028,-0.012852076531564718
0.8391219783273132,-0.042645815067100225
0.8419005279244235,0.3308136639925417
0.8446790775215338,-0.03120321853389279
0.8474576271186441,-0.0840142816032152
0.8502361767157545,0.24853665019585713
0.8530147263128648,-0.030561157256864015
0.855793275909975,0.10229918931785442
0.8585718255070853,-0.002852619534355033
0.8613503751041957,0.15304421674928165
0.864128924701306,-0.09016138806052981
0.8669074742984163,-0.11593076695031161
0.8696860238955266,-0.2431770792432685
0.872464573492637,0.14241534505219666
0.8752431230897472,0.16022878708132499
0.8780216726868575,0.005670973101351756
0.8808002222839678,-0.2832990489642827
0.8835787718810781,-0.019422168532443385
0.8863573214781885,0.24575866982836075
0.8891358710752988,0.1568683661187985
0.8919144206724091,0.23475960838681076
0.8946929702695193,0.004920079919368325
0.8974715198666297,0.0849233828833647
0.90025006946374,-0.04050291888606197
0.9030286190608503,0.16873947094263986
0.9058071686579606,0.29183709561474097
0.908585718255071,-0.008195535780036983
0.9113642678521813,0.5988205161853146
0.9141428174492915,0.5539971898119922
0.9169213670464018,0.21799282245494347
0.9196999166435121,0.10248669842977878
0.9224784662406225,0.362179022775887
0.9252570158377328,-0.0384718259609238
0.9280355654348431,0.053612422079461264
0.9308141150319534,0.22687440966474628
0.9335926646290637,0.33368149573140526
0.936371214226174,0.08879687797091451
0.9391497638232843,0.4073117120796831
0.9419283134203946,-0.04737513292771989
0.944706863017505,0.17966664842698618
0.9474854126146153,-0.1470433653787709
0.9502639622117256,0.24751537015578468
0.9530425118088358,0.016692342000175404
0.9558210614059461,0.03265873175575466
0.9585996110030565,0.01730778679721901
0.9613781606001668,-0.200824021545919
0.9641567101972771,-0.32815458468484626
0.9669352597943874,0.002619443354066709
0.9697138093914978,-0.302453414646034
0.972492358988608,0.04934061738167856
0.9752709085857183,0.200665961032132
0.9780494581828286,0.0447438967174468
0.980828007779939,0.04204668953845504
0.9836065573770493,0.17921424632600003
0.9863851069741596,0.1082357259106442
0.9891636565712699,0.16149592231902457
0.9919422061683801,-0.1461903447241408
0.9947207557654905,-0.19926856720724292
0.9974993053626008,0.4178797536137998
1.000277854959711,-0.07895532432224248
1.0030564045568213,-0.14805417547319624
1.0058349541539318,-0.03655227267471185
1.008613503751042,-0.2008854405090331
1.0113920533481524,0.12402188874977514
1.0141706029452626,-0.044114536552237106
1.016949152542373,0.07139908871535781
1.0197277021394833,0.17347517445401212
1.0225062517365935,-0.26539852636395267
1.025284801333704,0.01044001697566923
1.0280633509308141,-0.08974377970460556
1.0308419005279246,0.06456704116285807
1.0336204501250348,0.1313865158449656
1.0363989997221452,0.21928812527404076
1.0391775493192554,0.11037943733511264
1.0419560989163656,0.1358346931441139
1.044734648513476,0.15108233833551787
1.0475131981105863,-0.12062338896364384
1.0502917477076967,0.13693324375162044
1.053070297304807,0.1727529562637021
1.0558488469019174,0.22143673784446924
1.0586273964990276,0.13476729361885734
1.0614059460961378,-0.0311958781572129
1.0641844956932482,-0.07632362063131037
1.0669630452903585,-0.04624945412279384
1.069741594887469,-0.15490548350976727
1.072520144484579,-0.25927506127338673
1.0752986940816895,-0.09490396545659346
1.0780772436787998,0.07656134293147107
1.08085579327591,-0.19130335841662718
1.0836343428730204,0.09491256851566073
1.0864128924701306,-0.007848598459630814
1.089191442067241,-0.008517328474801548
1.0919699916643513,-0.13644424568495228
1.0947485412614617,-0.08630738343854966
1.097527090858572,0.13482514301038384
1.1003056404556821,-0.022268277001641912
1.1030841900527926,0.05604953701939105
1.1058627396499028,0.05538506247066773
1.1086412892470132,0.2172181289934459
1.1114198388441234,0.16176073804135546
1.1141983884412339,0.01194455986749417
1.116976938038344,0.07201767841874586
1.1197554876354543,-0.06338515520727091
1.1225340372325647,-0.04386701159616898
1.125312586829675,0.15706852753118297
1.1280911364267854,-0.14375431521172377
1.1308696860238956,0.1416619589386264
1.133648235621006,0.0074291870503037805
1.1364267852181162,-0.004332787961897379
1.1392053348152265,-0.08881516340301045
1.141983884412337,-0.1295922726485219
1.144762434009447,0.12253329102570944
1.1475409836065575,0.18870026223868855
1.1503195332036678,-0.08434366669283039
1.1530980828007782,-0.15859688670811403
1.1558766323978884,-0.09902948130489882
1.1586551819949986,0.25139480982366685
1.161433731592109,-0.18113393441888292
1.1642122811892193,0.19467890061308374
1.1669908307863297,0.09458494808961455
1.16976938038344,-0.4914937569334864
1.1725479299805504,0.029598711536858436
1.1753264795776606,-0.14693912677023227
1.1781050291747708,0.22413336757898122
1.1808835787718812,0.07004463245397058
1.1836621283689914,-0.09368207119841648
1.1864406779661019,-0.0541384904441528
1.189219227563212,0.14760359240320425
1.1919977771603223,0.22020168255589614
1.1947763267574327,0.39452120322122475
1.197554876354543,0.9891853148042851
1.2003334259516534,1.0282491627494936
1.2031119755487636,1.010602982807538
1.205890525145874,1.3524467361954318
1.2086690747429842,0.8447430422942152
1.2114476243400945,0.7572204471953
1.214226173937205,0.6386149676521776
1.217004723534315,0.03043748222240572
1.2197832731314255,-0.06752867354807776
1.2225618227285358,0.22829767425694192
1.2253403723256462,-0.12271111682012655
1.2281189219227564,0.21093157747218783
1.2308974715198666,-0.21805906145418705
1.233676021116977,-0.03882294918007987
1.2364545707140873,-0.12198858107845503
1.2392331203111977,-0.07926380391529801
1.242011669908308,0.10413032682453523
1.2447902195054183,-0.2005995211044221
1.2475687691025286,0.024718653632991253
1.2503473186996388,0.3165105716740128
1.2531258682967492,0.0969457778086806
1.2559044178938594,0.15847811679480941
1.2586829674909699,0.03210610618257608
1.26146151708808,0.08210696270511568
1.2642400666851905,-0.15204369366713266
1.2670186162823007,0.06514785394712094
1.269797165879411,0.03497525034834134
1.2725757154765214,0.08385685546588408
1.2753542650736316,-0.00873151236878652
1.278132814670742,-0.26805310061866955
1.2809113642678522,0.04521250230042824
1.2836899138649627,0.3358647389071836
1.2864684634620729,-0.38896909140248787
1.289247013059183,-0.11743333645216802
1.2920255626562935,0.12925880128986553
1.2948041122534037,0.1338401965245924
1.2975826618505142,-0.06927922304095864
1.3003612114476244,0.0899795914732881
1.3031397610447348,-0.18383162705214032
1.305918310641845,0.07855896259997316
1.3086968602389553,-0.04971376320634606
1.3114754098360657,0.18446876294121492
1.314253959433176,0.20148531989429208
1.3170325090302863,0.13686575658449834
1.3198110586273966,-0.16191208593292297
1.322589608224507,0.17604167782657054
1.3253681578216172,-0.19903120930982846
1.3281467074187274,0.17306941735486842
1.3309252570158379,-0.010024577430425343
1.333703806612948,-0.01994244975688193
1.3364823562100585,-0.005633252262930979
1.3392609058071687,0.12912435634259972
1.3420394554042792,0.05768573650932685
1.3448180050013894,0.28365672658556856
1.3475965545984996,-0.20458153872890567
1.35037510419561,0.15667427781208593
1.3531536537927202,0.29295046873038694
1.3559322033898307,-0.18531918757078183
1.3587107529869409,-0.17614098119956662
1.3614893025840513,-0.028879982533261763
1.3642678521811615,0.06688760389670818
1.3670464017782717,0.10258786905876172
1.3698249513753822,-0.09976259007090264
1.3726035009724924,-0.1602714242621683
1.3753820505696028,0.025797108527388795
1.378160600166713,0.024177884010098297
1.3809391497638235,-0.05989468245872092
1.3837176993609337,0.11886963812549586
1.386496248958044,-0.09207082395238476
1.3892747985551543,-0.022131524658703536
1.3920533481522646,-0.13661522089045072
1.394831897749375,-0.14305149368336612
1.3976104473464852,0.08341500873642049
1.4003889969435956,-0.18736860630060645
1.4031675465407059,-0.13913309443082494
1.405946096137816,-0.02882220822558685
1.4087246457349265,0.019079009208844207
1.4115031953320367,-0.1563833281035073
1.4142817449291472,0.4413516014154809
1.4170602945262574,0.2125886781126572
1.4198388441233678,-0.15422642504758682
1.422617393720478,0.23518432236600068
1.4253959433175882,0.14859804818308128
1.4281744929146987,0.2091476528033719
1.4309530425118089,0.12729265077190233
1.4337315921089193,0.17760717551541236
1.4365101417060295,0.490396790139158
1.43928869130314,0.11566626561292136
1.4420672409002502,0.29885693686326353
1.4448457904973604,0.3074954043772051
1.4476243400944708,0.09545065525277849
1.450402889691581,0.22663875630330127
1.4531814392886915,0.47345889872205527
1.4559599888858017,0.2705013937913909
1.4587385384829121,0.22935030420810684
1.4615170880800223,0.29919744052919406
1.4642956376771326,0.20845746577906837
1.467074187274243,0.35680861819269927
1.4698527368713532,0.2000191738479605
1.4726312864684636,0.11348947562548828
1.4754098360655739,0.36656773723965475
1.4781883856626843,-0.032806823849792444
1.4809669352597945,-0.25952810665488757
1.4837454848569047,0.05193772708098036
1.4865240344540152,0.008087551232903473
1.4893025840511254,0.2585454295789585
1.4920811336482358,-0.21490483747200786
1.494859683245346,-0.2631741144804603
1.4976382328424565,-0.321277543946315
1.5004167824395667,-0.09187517514573998
1.5031953320366769,-0.00612929844884905
1.5059738816337873,-0.03869213826352708
1.5087524312308975,0.22231705686746478
1.511530980828008,-0.03237137107150806
1.5143095304251182,0.2075900491429313
1.5170880800222286,-0.05142565725626365
1.5198666296193388,0.09664665855150459
1.522645179216449,0.14787680731333508
1.5254237288135595,-0.2415981068616299
1.5282022784106697,0.1844648994142094
1.5309808280077801,0.0775164665908113
1.5337593776048903,-0.03875559649358409
1.5365379272020008,-0.16535582432789098
1.539316476799111,0.36342523313016056
1.5420950263962212,-0.05528721488391126
1.5448735759933316,0.18133179941039881
1.5476521255904419,0.1373583834669929
1.5504306751875523,0.11710482877037695
1.5532092247846625,0.11974376562364912
1.555987774381773,0.16715704482030802
1.5587663239788832,-0.0431642584535874
1.5615448735759934,-0.15951691139944815
1.5643234231731038,-0.08808043818281738
1.567101972770214,-0.08974666714444296
1.5698805223673244,-0.28583401710263817
1.5726590719644347,-0.016080311760045984
1.575437621561545,-0.16773909980790694
1.5782161711586553,-0.013308231845439961
1.5809947207557655,0.13312420546146625
1.583773270352876,-0.05799404277954334
1.5865518199499862,0.058316748462190184
1.5893303695470966,-0.260420983149994
1.5921089191442068,-0.05569912959317461
1.5948874687413173,0.20455498727504515
1.5976660183384275,0.03402219842856612
1.6004445679355377,0.07994536251535408
1.6032231175326481,0.27138634193894795
1.6060016671297583,-6.66455950523788e-05
1.6087802167268688,-0.19583990397820647
1.611558766323979,-0.07895629545103772
1.6143373159210894,-0.00955721237252053
1.6171158655181996,-0.08504587929088125
1.6198944151153098,0.16430976399071046
1.6226729647124203,-0.12025252987886226
1.6254515143095305,0.015785652333316646
1.628230063906641,-0.17821715471943078
1.6310086135037511,0.02081299448423991
1.6337871631008616,0.024143170266721817
1.6365657126979718,-0.18901754918869365
1.639344262295082,0.034300324363077506
1.6421228118921924,0.034832270363222353
1.6449013614893027,-0.2646021699777399
1.647679911086413,0.11959654560614273
1.6504584606835233,-0.10119779967669548
1.6532370102806337,0.021224320500546914
1.656015559877744,-0.23165223782001315
1.6587941094748542,-0.04945814665448981
1.6615726590719646,0.035764886956185266
1.6643512086690748,0.031193650488335927
1.6671297582661853,-0.11861487510443881
1.6699083078632955,0.11844347968323823
1.6726868574604057,-0.026645392374138967
1.6754654070575161,-0.1973175405589854
1.6782439566546263,-0.14081858242153422
1.6810225062517368,-0.14477297642442694
1.683801055848847,0.04024873251399914
1.6865796054459574,0.008814569411196455
1.6893581550430676,-0.06694981523206445
1.6921367046401778,-0.11907884724337173
1.6949152542372883,-0.11449660921610132
1.6976938038343985,0.03518304377139011
1.700472353431509,-0.07645260463229626
1.7032509030286191,-0.14016520234915592
1.7060294526257296,-0.1293956846532666
1.7088080022228398,0.1201967399936444
1.71158655181995,-0.00010836889627183755
1.7143651014170604,0.15130965655836814
1.7171436510141707,0.11707062205303434
1.719922200611281,0.19484189860736004
1.7227007502083913,0.15508850051387424
1.7254792998055017,0.11435470270691403
1.728257849402612,0.043293980277392265
1.7310363989997222,-0.09435656267482662
1.7338149485968326,-0.1935533601032096
1.7365934981939428,0.18165483815138497
1.7393720477910533,-0.10740138829065647
1.7421505973881635,0.051491396964735744
1.744929146985274,-0.0658775618561042
1.7477076965823841,0.06831856208891798
1.7504862461794943,-0.1244232744490473
1.7532647957766048,-0.11601242893828792
1.756043345373715,0.007823477151228326
1.7588218949708254,-0.019204883939914194
1.7616004445679356,0.019248229053235786
1.764378994165046,0.07458511018087359
1.7671575437621563,0.04991395623482447
1.7699360933592665,-0.09889795277367318
1.772714642956377,0.03175485546846327
1.7754931925534871,0.07265873879881206
1.7782717421505976,-0.10820666659061966
1.7810502917477078,0.08226828284438512
1.7838288413448182,-0.14573608978440625
1.7866073909419284,-0.2322608210653362
1.7893859405390387,-0.09397661641570844
1.792164490136149,-0.07889428230004247
1.7949430397332593,-0.09313704059224782
1.7977215893303697,-0.10301436514966693
1.80050013892748,0.1876300940611273
1.8032786885245904,-0.15851415811194836
1.8060572381217006,-0.2408737329608163
1.8088357877188108,0.13735786946665257
1.8116143373159213,-0.037235062444056555
1.8143928869130315,0.12215871791607988
1.817171436510142,0.04370886539308454
1.8199499861072521,-0.0176935332538461
1.8227285357043626,-0.42288759735113596
1.8255070853014728,-0.214794765320097
1.828285634898583,-0.15636656612680208
1.8310641844956934,-0.1087695203734579
1.8338427340928036,-0.06254184655067853
1.836621283689914,-0.00672740842384987
1.8393998332870243,-0.09651628652312506
1.8421783828841347,0.1870529322298916
1.844956932481245,0.035027759947275465
1.8477354820783551,-0.1726692409984344
1.8505140316754656,0.11720200178615452
1.8532925812725758,-0.4968549755213449
1.8560711308696862,-0.12088822562568051
1.8588496804667964,-0.0003239416057244074
1.8616282300639069,0.0736815689250363
1.864406779661017,-0.05151921676471156
1.8671853292581273,0.2835784060951043
1.8699638788552377,-0.04807514288656232
1.872742428452348,0.15766792725834627
1.8755209780494584,-0.0452111708368614
1.8782995276465686,0.12071652285641077
1.881078077243679,-0.025630925671532117
1.8838566268407893,0.2974761970687854
1.8866351764378995,0.06155991161083646
1.88941372603501,-0.08222118002131933
1.8921922756321201,-0.015865689379401325
1.8949708252292305,0.2552512799290229
1.8977493748263408,0.268928656863754
1.9005279244234512,-0.2254169808370903
1.9033064740205614,-0.029515580633621617
1.9060850236176716,-0.199121156230781
1.908863573214782,0.2623697739996098
1.9116421228118923,0.17993802087368982
1.9144206724090027,0.23266120251337302
1.917199222006113,-0.2302010404731618
1.9199777716032234,0.23983933592477472
1.9227563212003336,0.22639277647100448
1.9255348707974438,-0.10740160807263609
1.9283134203945542,0.09759415478055217
1.9310919699916644,0.08253918613686484
1.9338705195887749,0.18154845872829592
1.936649069185885,0.10082407288231851
1.9394276187829955,-0.0006154855216609148
1.9422061683801057,0.0573141244384103
1.944984717977216,0.12601654610353566
1.9477632675743264,0.2593629235211428
1.9505418171714366,-0.2119591469950071
1.953320366768547,0.014234178887315837
1.9560989163656572,-0.28222641493651596
1.9588774659627677,-0.1462219742477442
1.961656015559878,-0.003780419173624594
1.964434565156988,0.3646070258941779
1.9672131147540985,0.8056657521764469
1.9699916643512088,0.5824565660888141
1.9727702139483192,0.9408409158776155
1.9755487635454294,1.2668499953693193
1.9783273131425398,1.2664472446483177
1.98110586273965,0.968143724087873
1.9838844123367603,0.9411135802327738
1.9866629619338707,0.5609184680775092
1.989441511530981,0.24359545126666193
1.9922200611280914,0.2477332529208556
1.9949986107252016,0.06000923280965774
1.997777160322312,0.08486412654428792
2.000555709919422,0.04300937348447486
2.0033342595165324,-0.12964678960425044
2.0061128091136426,-0.05817685016914632
2.0088913587107533,0.1530566176489135
2.0116699083078635,-0.2041111122970293
2.0144484579049737,-0.07044085526150835
2.017227007502084,0.05096413875555297
2.020005557099194,0.035830474833891936
2.022784106696305,-0.10301090725393311
2.025562656293415,-0.15760843653854906
2.0283412058905252,0.2078762358157738
2.0311197554876355,0.007899785062818786
2.033898305084746,-0.2637908495233172
2.0366768546818563,0.13957818950399095
2.0394554042789665,0.17826985505042398
2.0422339538760768,0.11403499647796482
2.045012503473187,-0.067699780816787
2.0477910530702976,0.10544900263028915
2.050569602667408,0.07521463340214417
2.053348152264518,0.19643911441749368
2.0561267018616283,-0.06363148229832405
2.0589052514587385,-0.13607124766510573
2.061683801055849,0.2189728812468298
2.0644623506529594,0.2982056638599926
2.0672409002500696,-0.02544834460391435
2.07001944984718,0.02586191671406039
2.0727979994442904,-0.07516115583727405
2.0755765490414007,0.20493828602427097
2.078355098638511,0.05116822903242573
2.081133648235621,0.06424516525198468
2.0839121978327313,-0.0522436538409187
2.086690747429842,-0.3891647843470909
2.089469297026952,-0.09143966147124442
2.0922478466240624,-0.12024247844825897
2.0950263962211726,-0.1250746617505034
2.097804945818283,-0.013523472441237685
2.1005834954153935,-0.015277004479534955
2.1033620450125037,0.10192221615428528
2.106140594609614,0.07845747252049547
2.108919144206724,0.15110766151894234
2.1116976938038348,0.19063629750566718
2.114476243400945,0.00220195977596232
2.117254792998055,-0.06791349994232308
2.1200333425951654,-0.13698099850985349
2.1228118921922756,-0.00751046824130191
2.1255904417893863,0.40897316564309405
2.1283689913864965,0.1241549627256113
2.1311475409836067,-0.1091702728628387
2.133926090580717,0.08399013098013552
2.136704640177827,0.060316031083542304
2.139483189774938,-0.12465472954304359
2.142261739372048,0.1506995246424177
2.145040288969158,-0.07949099049928851
2.1478188385662684,0.04674031459865558
2.150597388163379,0.0789886589612362
2.1533759377604893,-0.017464868539695942
2.1561544873575995,0.08050659926097907
2.1589330369547097,0.0870874871540165
2.16171158655182,-0.10140749557469361
2.1644901361489306,0.14268229116220799
2.167268685746041,0.034648622937256346
2.170047235343151,0.04856849736283815
2.1728257849402612,0.28703172320306203
2.1756043345373715,-0.10428693833282465
2.178382884134482,-0.09777143893332671
2.1811614337315923,-0.11656006627879839
2.1839399833287025,0.07277889227310586
2.1867185329258128,-0.06093853809495059
2.1894970825229234,0.19462680744200986
2.1922756321200336,0.21461156353619182
2.195054181717144,0.10423839630919611
2.197832731314254,-0.1133383269624933
2.2006112809113643,0.24288409382420112
2.203389830508475,0.016192372928074003
2.206168380105585,0.18762717361524522
2.2089469297026953,0.06655267000261715
2.2117254792998056,0.46103382007273863
2.2145040288969158,0.42036759097691523
2.2172825784940264,0.41519646617259975
2.2200611280911366,0.00927878875782348
2.222839677688247,0.12176991980314789
2.225618227285357,0.46041866783314245
2.2283967768824677,0.38696554978373854
2.231175326479578,0.291368319085642
2.233953876076688,0.0927583115800972
2.2367324256737984,0.022657720435589668
2.2395109752709086,0.2581729792461048
2.2422895248680192,0.1646185348360544
2.2450680744651295,0.09957883227448776
2.2478466240622397,0.08968275318188727
2.25062517365935,0.13952451531535387
2.25340372325646,0.17802352730200904
2.2561822728535708,0.15140430026123128
2.258960822450681,0.26167926966396104
2.261739372047791,-0.16182498006980028
2.2645179216449014,0.2508557373042173
2.267296471242012,0.011395136347706995
2.2700750208391223,0.0018858621926223576
2.2728535704362325,0.1225171427833239
2.2756321200333427,0.1787424203097741
2.278410669630453,-0.00374055259141573
2.2811892192275636,-0.1399245361226572
2.283967768824674,-0.31502368725201113
2.286746318421784,-0.12064442355167002
2.289524868018894,-0.06390484765165313
2.2923034176160044,0.05649072349175792
2.295081967213115,0.05517221853526335
2.2978605168102253,0.18862430057242616
2.3006390664073355,0.10273922955746631
2.3034176160044457,0.231857616524824
2.3061961656015564,0.10192342973384257
2.3089747151986666,-0.06615105382013275
2.311753264795777,-0.033105991178649
2.314531814392887,-0.19230658233571357
2.3173103639899972,-0.19158387160263676
2.320088913587108,-0.02735932726439187
2.322867463184218,-0.04425623782033963
2.3256460127813283,0.0504138541331327
2.3284245623784385,0.1664084147876071
2.3312031119755487,0.11409998847880895
2.3339816615726594,0.3655993020605759
2.3367602111697696,-0.1973046912715518
2.33953876076688,0.24444081439842302
2.34231731036399,-0.10277865234675529
2.3450958599611007,0.05719049540324194
2.347874409558211,-0.15602327299012503
2.350652959155321,-0.1699664958561462
2.3534315087524313,-0.0183021856063322
2.3562100583495416,-0.12118319558950881
2.358988607946652,0.09968430916319598
2.3617671575437624,0.06667545856358915
2.3645457071408726,0.10304033279064839
2.367324256737983,0.17078641658754132
2.370102806335093,0.1314730327833008
2.3728813559322037,-0.1906594139501332
2.375659905529314,-0.13195322878008497
2.378438455126424,0.16522497711690698
2.3812170047235344,-0.017794601889111927
2.3839955543206446,0.11572171501968541
2.3867741039177552,0.09151192193931822
2.3895526535148655,0.19726496445543984
2.3923312031119757,0.04503466317603636
2.395109752709086,-0.06078308355204087
2.3978883023061965,0.05926593147102279
2.4006668519033068,-0.18739639914709494
2.403445401500417,0.012540370701043248
2.406223951097527,0.08502343899598072
2.4090025006946374,-0.03304771207322691
2.411781050291748,-0.18071815623776782
2.4145595998888583,-0.05863674838563431
2.4173381494859685,-0.12616376579369895
2.4201166990830787,-0.05880785853372651
2.422895248680189,-0.10722421532559817
2.4256737982772996,-0.06629730624608472
2.42845234787441,0.2251387917710929
2.43123089747152,0.32688758362663534
2.43400944706863,-0.34738116329508345
2.436787996665741,-0.14728603287538636
2.439566546262851,-0.1828828074030698
2.4423450958599613,0.07161528121782564
2.4451236454570715,-0.09120425934034448
2.4479021950541817,-0.05692379323202478
2.4506807446512924,0.09911794183824063
2.4534592942484026,-0.20772101231251225
2.456237843845513,0.08417591357084521
2.459016393442623,-0.12035011163561671
2.4617949430397332,0.019020138343479185
2.464573492636844,-0.17488914157295185
2.467352042233954,-0.125715086042057
2.4701305918310643,0.1277379074269884
2.4729091414281745,-0.07359545399291921
2.475687691025285,0.2254693284370758
2.4784662406223954,0.03965752171180902
2.4812447902195056,0.1439857007592427
2.484023339816616,0.5165047689636935
2.486801889413726,0.46405104951616494
2.4895804390108367,1.268503507137949
2.492358988607947,1.0178235494714833
2.495137538205057,1.1250580800425118
2.4979160878021673,0.9107492821218253
2.5006946373992776,0.677453604001697
2.503473186996388,0.18038421934806836
2.5062517365934984,0.31151938943263074
2.5090302861906086,0.1902453652661041
2.511808835787719,0.049884490479527865
2.5145873853848295,-0.12096233265605881
2.5173659349819397,-0.24974074551026998
2.52014448457905,0.10395970919471102
2.52292303417616,-0.09480820637548655
2.5257015837732704,-0.050075293667698945
2.528480133370381,-0.031024359619793634
2.5312586829674912,0.01755042358814871
2.5340372325646014,-0.2888060404117752
2.5368157821617117,0.15995517271843918
2.539594331758822,0.06866347174101585
2.5423728813559325,-0.06479777466383868
2.5451514309530427,0.1628367015129873
2.547929980550153,-0.0981640123572571
2.550708530147263,-0.09890464654755268
2.553487079744374,-0.09102371325953186
2.556265629341484,-0.03068382889914863
2.5590441789385943,0.03905113413282005
2.5618227285357045,0.13117947927659196
2.5646012781328147,0.051141312379447364
2.5673798277299253,-0.05833113694545855
2.5701583773270356,0.07785459892390244
2.5729369269241458,-0.17285706713582558
2.575715476521256,-0.018920879878390497
2.578494026118366,0.033673861339462506
2.581272575715477,-0.016270699050871515
2.584051125312587,0.2679826170352296
2.5868296749096973,0.2683188793764143
2.5896082245068075,-0.058651856413457236
2.592386774103918,0.1482561444140569
2.5951653237010284,0.008773153879262908
2.5979438732981386,-0.07558003521598845
2.600722422895249,-0.24273218670038743
2.603500972492359,0.16368474085005966
2.6062795220894697,-0.19690657357818883
2.60905807168658,-0.06382642723100485
2.61183662128369,-0.0037963020681895747
2.6146151708808003,0.12248696523610096
2.6173937204779105,-0.019827307311560998
2.620172270075021,-0.038973221367261696
2.6229508196721314,-0.015868609612472342
2.6257293692692416,-0.26005712110237567
2.628507918866352,-0.06568343543168806
2.6312864684634625,0.1154617049930702
2.6340650180605727,0.15477164928367718
2.636843567657683,0.10031509435097709
2.639622117254793,-0.0019615492822801094
2.6424006668519033,-0.011861313203002809
2.645179216449014,-0.19343596604107752
2.647957766046124,0.06782127247348814
2.6507363156432344,0.11132062386634997
2.6535148652403446,0.2733591107287098
2.656293414837455,0.11079247088803233
2.6590719644345655,-0.15080949604156882
2.6618505140316757,0.09451244121202451
2.664629063628786,-0.11512640048340593
2.667407613225896,-0.3285744509972788
2.670186162823007,-0.37164703060931165
2.672964712420117,0.11913563396329914
2.6757432620172272,0.17674873976742564
2.6785218116143374,-0.21010278093434845
2.6813003612114477,-0.10547628376881141
2.6840789108085583,-0.04405825554551395
2.6868574604056685,-0.092412214466185
2.6896360100027787,0.09208410754882455
2.692414559599889,0.2428987099675417
2.695193109196999,0.10231828356571364
2.69797165879411,0.043124099385780344
2.70075020839122,0.04726949995978866
2.7035287579883303,0.06287477742025864
2.7063073075854405,-0.12886305146249155
2.709085857182551,-0.2219928782941219
2.7118644067796613,0.3434790940251362
2.7146429563767716,-0.07237485521489162
2.7174215059738818,0.3149698900275065
2.720200055570992,0.127220873897102
2.7229786051681026,0.38077899870252946
2.725757154765213,0.31055402831309425
2.728535704362323,0.2789820610352316
2.7313142539594333,0.4212908027390909
2.7340928035565435,0.3891350236883325
2.736871353153654,0.30221397811067646
2.7396499027507644,0.1675699737173527
2.7424284523478746,0.4559302338299545
2.745207001944985,0.4810299218159758
2.7479855515420955,0.6802860996845669
2.7507641011392057,-0.06426915584488524
2.753542650736316,0.37976115701994884
2.756321200333426,0.02180372265696784
2.7590997499305363,0.38139018755447246
2.761878299527647,-0.1531985395834611
2.764656849124757,0.19024528231396787
2.7674353987218674,0.27653135457668204
2.7702139483189776,-0.018321823983970337
2.772992497916088,-0.03275803843482111
2.7757710475131985,0.15419562176179236
2.7785495971103087,0.014532220713345492
2.781328146707419,-0.09865291621029544
2.784106696304529,-0.06017398132833969
2.7868852459016398,-0.12572062473402673
2.78966379549875,0.2503008108066769
2.79244234509586,0.09027576832528161
2.7952208946929704,-0.09191096059538725
2.7979994442900806,0.2079308347151401
2.8007779938871913,0.21677529083078112
2.8035565434843015,0.06548381244870047
2.8063350930814117,0.2636794564602334
2.809113642678522,-0.02984123957186161
2.811892192275632,0.028723567056112155
2.814670741872743,-0.07465537454496211
2.817449291469853,0.04941333503395383
2.8202278410669632,-0.04380647543915689
2.8230063906640734,0.040755389785934126
2.825784940261184,0.15153884099651008
2.8285634898582943,-0.04601135656833226
2.8313420394554045,0.012148278498196564
2.8341205890525147,-0.17050359596042441
2.836899138649625,-0.015651069087588218
2.8396776882467356,0.2427580143637296
2.842456237843846,0.2012141117884077
2.845234787440956,0.1582751390405366
2.8480133370380663,0.003949835309425873
2.8507918866351765,0.20981225356470812
2.853570436232287,0.19718330202826492
2.8563489858293973,-0.11760952195503865
2.8591275354265075,-0.056717851562360685
2.8619060850236178,-0.41600572178384915
2.864684634620728,-0.003374277525121813
2.8674631842178386,-0.11957817836410094
2.870241733814949,0.10980288276956048
2.873020283412059,0.012488059105725507
2.8757988330091693,-0.1980059176131495
2.87857738260628,0.14113397766431612
2.88135593220339,-0.24558773231118608
2.8841344818005004,-0.11053194519462947
2.8869130313976106,-0.032098698424052025
2.889691580994721,-0.11255565617169605
2.8924701305918314,0.013605887829366009
2.8952486801889417,0.0805954573746129
2.898027229786052,0.25167235639187147
2.900805779383162,0.15772568140112153
2.9035843289802723,-0.13927648985006083
2.906362878577383,0.010050164380437118
2.909141428174493,0.44447215145758917
2.9119199777716034,0.07630718501598201
2.9146985273687136,-0.283219733398538
2.9174770769658243,0.11554571453991137
2.9202556265629345,-0.03209529506173612
2.9230341761600447,-0.17690920776443841
2.925812725757155,-0.0420964480857117
2.928591275354265,0.09654562407646414
2.9313698249513758,-0.047308851403141255
2.934148374548486,0.06240841116200965
2.936926924145596,-0.4008039422552029
2.9397054737427064,0.1382733742096273
2.9424840233398166,0.10495179268813472
2.9452625729369273,-0.17226143483559575
2.9480411225340375,-0.15717564252529306
2.9508196721311477,-0.18853380253004043
2.953598221728258,-0.38443330727629266
2.9563767713253686,0.06114965306835681
2.959155320922479,0.014788851783269415
2.961933870519589,-0.23468035746031468
2.964712420116699,0.055629847083473634
2.9674909697138094,-0.006374263836361828
2.97026951931092,0.11890843127711222
2.9730480689080303,0.12274062599115354
2.9758266185051405,-0.11905213511260457
2.9786051681022507,-0.02957917488696114
2.981383717699361,0.1703545292492294
2.9841622672964716,-0.059755155410965814
2.986940816893582,-0.03864960219872221
2.989719366490692,-0.07666564740653431
2.9924979160878022,-0.20335727863976272
2.995276465684913,0.43090568610537333
2.998055015282023,-0.12732027121763112
3.0008335648791333,-0.22533270262503752
3.0036121144762435,-0.0674221579530376
3.0063906640733538,-0.12524958289369317
3.0091692136704644,-0.039058558908412463
3.0119477632675746,-0.06999979810531906
3.014726312864685,-0.07093176884844564
3.017504862461795,-0.39235477766622634
3.0202834120589053,0.06610837522908171
3.023061961656016,-0.09129394058491071
3.025840511253126,0.20786362364558014
3.0286190608502364,-0.04509817699807882
3.0313976104473466,0.018927964530067592
3.0341761600444572,-0.10967007988316348
3.0369547096415674,-0.03841583284432014
3.0397332592386777,0.15851188234943023
3.042511808835788,0.11097584323257423
3.045290358432898,0.08104433151963805
3.0480689080300087,0.007102653492529697
3.050847457627119,0.0694010868842743
3.053626007224229,-0.13442909607362719
3.0564045568213394,-0.03356984207250745
3.0591831064184496,0.16580435636165672
3.0619616560155603,0.10795982495983547
3.0647402056126705,0.05961540404994549
3.0675187552097807,-0.04678727617238706
3.070297304806891,-0.06727477488625769
3.0730758544040016,-0.19426307963825254
3.0758544040011118,-0.08500948355389094
3.078632953598222,-0.21532946657737442
3.081411503195332,-0.14016993607319264
3.0841900527924424,-0.20762086489064321
3.086968602389553,-0.07786035559341208
3.0897471519866633,0.18318881349397434
3.0925257015837735,-0.32378210297916793
3.0953042511808837,0.10412181500674823
3.098082800777994,-0.009130665736623965
3.1008613503751046,-0.15106256957299816
3.103639899972215,0.22022085514527662
3.106418449569325,0.08773170649528295
3.109196999166435,0.0358072755621424
3.111975548763546,0.0036027234422787912
3.114754098360656,-0.12148053058066467
3.1175326479577663,-0.3439801790212859
3.1203111975548765,-0.00785574730266096
3.1230897471519867,-0.05355016094023565
3.1258682967490974,-0.06654473353135838
3.1286468463462076,-0.27098854021626195
3.131425395943318,-0.328077649988929
3.134203945540428,-0.3691355232461283
3.1369824951375382,0.05743825060159061
3.139761044734649,-0.1896893299749229
3.142539594331759,-0.29401411119946064
3.1453181439288693,-0.14273362346171067
3.1480966935259795,-0.22893782640131005
3.15087524312309,0.03361077060977268
3.1536537927202004,0.3387399586970625
3.1564323423173106,-0.2535407185594066
3.159210891914421,0.07565928981062242
3.161989441511531,0.15351585991009628
3.1647679911086417,-0.1134345046588363
3.167546540705752,-0.2296103844289198
3.170325090302862,0.043112590471075914
3.1731036398999724,0.0808312670475723
3.1758821894970826,0.14248994490642475
3.178660739094193,0.24520026066961664
3.1814392886913034,0.08248963675897691
3.1842178382884136,0.21055477175233772
3.186996387885524,0.007211126115307766
3.1897749374826345,0.23058308555537432
3.1925534870797447,0.06137877141045242
3.195332036676855,0.010618472563749284
3.198110586273965,-0.11645879406696445
3.2008891358710754,0.2588486515126414
3.203667685468186,0.5659482560941204
3.2064462350652962,0.5515309337920171
3.2092247846624065,0.9108970601016758
3.2120033342595167,1.0778979104500581
3.214781883856627,1.3920453936872692
3.2175604334537375,1.0387030860779662
3.2203389830508478,0.9826722619015743
3.223117532647958,0.4861546977776475
3.225896082245068,0.2393187890926411
3.228674631842179,-0.024748316821441657
3.231453181439289,-0.12813303454179492
3.2342317310363993,-0.09027621435990346
3.2370102806335095,-0.10088801383980368
3.2397888302306197,-0.08201476157621568
3.2425673798277304,0.13309822175627833
3.2453459294248406,0.08721281357786091
3.248124479021951,0.050165233089633776
3.250903028619061,-0.11434697420664088
3.253681578216171,-0.12110282830704812
3.256460127813282,-0.11520106000342437
3.259238677410392,0.026515131067180238
3.2620172270075023,-0.013384361161806819
3.2647957766046125,-0.1581262744852983
3.267574326201723,0.29949668563957554
3.2703528757988334,-0.017234447592260078
3.2731314253959436,-0.0651168525007403
3.275909974993054,-0.10522850064271322
3.278688524590164,0.029256887957279473
3.2814670741872747,-0.10365085030264008
3.284245623784385,0.1895670373119441
3.287024173381495,-0.20817580169522476
3.2898027229786053,0.08231297463151711
3.2925812725757155,0.4477280098161333
3.295359822172826,-0.11407536120340159
3.2981383717699364,-0.06989757831047394
3.3009169213670466,-0.10799977367074505
3.303695470964157,0.01992533593466241
3.3064740205612675,0.021044278476741153
3.3092525701583777,-0.07937625187239296
3.312031119755488,0.05189531067219895
3.314809669352598,-0.1914529545614038
3.3175882189497083,0.14756384591396005
3.320366768546819,-0.13614489369501886
3.323145318143929,0.24291307649068125
3.3259238677410394,0.06168549468717304
3.3287024173381496,0.16305588556317127
3.33148096693526,-0.18935100974754532
3.3342595165323705,-0.11506215594985247
3.3370380661294807,0.1988956271491593
3.339816615726591,0.12436307324261835
3.342595165323701,0.021892203487170987
3.3453737149208114,-0.14253631351090748
3.348152264517922,-0.10753670383919767
3.3509308141150322,0.2529782636892957
3.3537093637121425,-0.19508564956404584
3.3564879133092527,-0.4229669853726159
3.3592664629063633,0.05004462744454055
3.3620450125034735,-0.05873500934023723
3.3648235621005838,-0.15609980320179842
3.367602111697694,0.03357632528642493
3.370380661294804,-0.06771990308691456
3.373159210891915,0.16968104230576259
3.375937760489025,-0.23825349754288805
3.3787163100861353,-0.12579354244658703
3.3814948596832455,-0.035323029439896375
3.3842734092803557,-0.08148288270008087
3.3870519588774664,0.054602821841674594
3.3898305084745766,-0.1093440823704385
3.392609058071687,-0.22607093923485824
3.395387607668797,-0.11271203984292666
3.3981661572659076,0.005010570159273749
3.400944706863018,-0.004389411975403374
3.403723256460128,0.15889117948827694
3.4065018060572383,-0.19847065256537116
3.4092803556543485,0.24334882229988541
3.412058905251459,0.12477878162178938
3.4148374548485694,0.17792252585566293
3.4176160044456796,0.07307019823129264
3.42039455404279,-0.05444251315874836
3.4231731036399,-0.13147441410312571
3.4259516532370107,-0.11954705977146574
3.428730202834121,0.03363741345153706
3.431508752431231,0.12123159651334292
3.4342873020283413,0.29074824596603366
3.437065851625452,0.06047776188298069
3.439844401222562,0.0056288393131063985
3.4426229508196724,0.2544388220039385
3.4454015004167826,0.3965492073716804
3.448180050013893,0.09665841391858049
3.4509585996110035,0.4049430646439689
3.4537371492081137,0.4343694204116094
3.456515698805224,0.28922337239953094
3.459294248402334,0.22557591913099911
3.4620727979994443,0.47050992982543804
3.464851347596555,0.36559578582656294
3.467629897193665,0.3081933585435151
3.4704084467907754,0.3062181338599962
3.4731869963878856,0.1607167755831992
3.4759655459849963,0.33998517960869734
3.4787440955821065,0.43382685478077826
3.4815226451792167,0.0003356381818230558
3.484301194776327,0.06681227327850346
3.487079744373437,0.019058889175789906
3.489858293970548,0.06737614127795961
3.492636843567658,0.07364703215605972
3.4954153931647682,0.11566588973755401
3.4981939427618784,0.18465757938512176
3.5009724923589887,0.21142240089197364
3.5037510419560993,-0.02185353032151674
3.5065295915532095,-0.4191057995248678
3.5093081411503197,0.14635232792979183
3.51208669074743,0.16934336099176805
3.5148652403445406,0.26072020154910097
3.517643789941651,0.013706848536728202
3.520422339538761,-0.08490512838108472
3.5232008891358713,-0.19287924747839047
3.5259794387329815,-0.13640490547309644
3.528757988330092,0.09996874975932954
3.5315365379272023,-0.047077540492830826
3.5343150875243126,-0.009827432320871582
3.5370936371214228,-0.19649706426840183
3.539872186718533,0.15446347666391022
3.5426507363156436,0.11006486264018459
3.545429285912754,-0.010041439974611547
3.548207835509864,0.022842308193382652
3.5509863851069743,-0.009721469253878939
3.553764934704085,-0.17550368654545498
3.556543484301195,0.004516279490729124
3.5593220338983054,-0.036072050696384673
3.5621005834954156,0.038692887749953095
3.564879133092526,0.19493295972513677
3.5676576826896365,0.009215347361928574
3.5704362322867467,-0.1981643359801979
3.573214781883857,0.31630297567992693
3.575993331480967,0.08452004501903859
3.5787718810780773,0.22360880681104128
3.581550430675188,0.12077963939113234
3.584328980272298,0.02918199398004156
3.5871075298694084,0.13528068045292269
3.5898860794665186,-0.1123462889335246
3.5926646290636293,-0.08528108318165156
3.5954431786607395,-0.12004468460280647
3.5982217282578497,-0.18802325802009853
3.60100027785496,-0.21830800237797351
3.60377882745207,0.010693853550261404
3.606557377049181,-0.04491753169406142
3.609335926646291,-0.09428917068750661
3.612114476243401,-0.3211840929174576
3.6148930258405114,-0.1823641801490211
3.6176715754376216,0.21859000008426824
3.6204501250347323,-0.17157578166354545
3.6232286746318425,0.31618827725762083
3.6260072242289527,-0.1328686301541083
3.628785773826063,-0.0006795666776864219
3.6315643234231736,0.16751859564030902
3.634342873020284,-0.17108894563694255
3.637121422617394,0.1834074500289929
3.6398999722145042,-0.1577358536399463
3.6426785218116144,-0.15398438160315245
3.645457071408725,-0.2394338721933244
3.6482356210058353,0.011829677834699515
3.6510141706029455,-0.05886192177076576
3.6537927202000557,0.21110869139158814
3.656571269797166,-0.2606953018433499
3.6593498193942766,-0.1577492533478708
3.662128368991387,0.008147964562174582
3.664906918588497,0.3852399457504567
3.6676854681856073,-0.3015785227676656
3.670464017782718,-0.06451209298267634
3.673242567379828,-0.1441707167715229
3.6760211169769383,-0.14334641040393706
3.6787996665740486,-0.068753505999105
3.6815782161711588,-0.0020723269919290578
3.6843567657682694,-0.113381381810024
3.6871353153653796,0.08712565477047003
3.68991386496249,-0.0414575027825294
3.6926924145596,0.19048525707772584
3.6954709641567103,0.050932892886637285
3.698249513753821,-0.2665675043139156
3.701028063350931,-0.09042413851980367
3.7038066129480414,-0.17257066920445505
3.7065851625451516,0.17694268282255338
3.7093637121422622,0.21480266045025398
3.7121422617393725,-0.3960598611398018
3.7149208113364827,0.0541902880719933
3.717699360933593,0.0002537146822420072
3.720477910530703,-0.1244714393890225
3.7232564601278137,-0.0044128339593318845
3.726035009724924,-0.2328916789065682
3.728813559322034,0.06797339164351558
3.7315921089191444,0.09056502470055972
3.7343706585162546,-0.31760307665306525
3.7371492081133653,-0.049274810351765376
3.7399277577104755,-0.10602434096243671
3.7427063073075857,0.16343992406969168
3.745484856904696,-0.11605602893090644
3.7482634065018066,-0.43874382258445166
3.7510419560989168,0.028557115059652867
3.753820505696027,-0.180354092886247
3.756599055293137,-0.042349739954859175
3.7593776048902474,-0.1259983782042339
3.762156154487358,-0.08870614891162937
3.7649347040844683,0.1657905505108716
3.7677132536815785,-0.1875702871841526
3.7704918032786887,0.06284286247355797
3.773270352875799,-0.15184642802777173
3.7760489024729096,-0.010518289132951065
3.77882745207002,0.1432954799623532
3.78160600166713,0.2040412108473209
3.7843845512642402,-0.09619068717193661
3.787163100861351,-0.1534826551798257
3.789941650458461,0.13866704396696874
3.7927202000555713,0.018552994379063117
3.7954987496526815,-0.15618125480884784
3.7982772992497917,-0.06488450663251571
3.8010558488469024,0.1389547931717019
3.8038343984440126,-0.0672204908836536
3.806612948041123,0.08149548585717739
3.809391497638233,-0.16561037989668673
3.8121700472353433,0.1929037693099794
3.814948596832454,-0.1067595313058476
3.817727146429564,-0.022194653315457905
3.8205056960266743,0.058934407898281985
3.8232842456237845,-0.022696125355933818
3.8260627952208948,-0.11979183104654526
3.8288413448180054,-0.05639150139819299
3.8316198944151156,0.16694085953674778
3.834398444012226,0.16359836422264154
3.837176993609336,-0.011735751795305826
3.8399555432064467,-0.30914569734518277
3.842734092803557,-0.07838523946687076
3.845512642400667,0.05686040021508506
3.8482911919977774,-0.02323391543552079
3.8510697415948876,0.15251220159917814
3.8538482911919982,-0.022247821196959675
3.8566268407891084,-0.11409234494570472
3.8594053903862187,0.1781595634264523
3.862183939983329,0.17206447720874787
3.864962489580439,0.0009668969143191212
3.8677410391775497,0.16687186910556057
3.87051958877466,0.11970253092734338
3.87329813837177,-0.020023867986279704
3.8760766879688804,-0.012379746639977313
3.878855237565991,-0.3586076494610602
3.8816337871631013,-0.0016855294935917892
3.8844123367602115,0.13725868059282295
3.8871908863573217,0.09027218320869203
3.889969435954432,-0.3637170144632742
3.8927479855515426,0.15409478783002603
3.8955265351486528,-0.035417022080359496
3.898305084745763,0.0551624295241855
3.901083634342873,0.06179939226587572
3.9038621839399834,-0.32640628624305407
3.906640733537094,0.09983862827822583
3.9094192831342043,-0.18495685671706716
3.9121978327313145,-0.24413804143275908
3.9149763823284247,-0.37374931771392517
3.9177549319255354,-0.0032417198972203337
3.9205334815226456,-0.20325753740289396
3.923312031119756,-0.08948810588581098
3.926090580716866,0.14404424780435035
3.928869130313976,-0.01514124094678396
3.931647679911087,-0.08745365235590283
3.934426229508197,-0.275099829119084
3.9372047791053073,-0.1268276924610756
3.9399833287024175,-0.19018074022086023
3.9427618782995277,0.09765191380650116
3.9455404278966384,-0.18625643478672557
3.9483189774937486,0.07883271435289299
3.951097527090859,0.19031653618482064
3.953876076687969,0.12439770590891616
3.9566546262850797,0.006285599588779573
3.95943317588219,-0.009715322054278107
3.9622117254793,0.04558124415827208
3.9649902750764103,-0.1868815088420466
3.9677688246735205,0.04946691103038262
3.970547374270631,-0.12828382064954702
3.9733259238677414,0.11753378351504962
3.9761044734648516,0.11060755924757391
3.978883023061962,0.05877337515666989
3.981661572659072,-0.05105453903150692
3.9844401222561827,-0.035598365367708794
3.987218671853293,0.0352057595803633
3.989997221450403,-0.03672039564931048
3.9927757710475134,-0.11523130962824348
3.995554320644624,-0.1584029702208377
3.9983328702417342,-0.021648814884614224
4.001111419838844,0.2035234679664835
4.003889969435955,-0.032117659902873394
4.006668519033065,-0.03707436013297428
4.009447068630175,0.08658690861136698
4.012225618227285,0.11881968093233339
4.015004167824396,0.01430736242638588
4.017782717421507,0.07255851864075441
4.020561267018617,-0.15305530692950828
4.023339816615727,-0.02194937733329703
4.026118366212837,-0.1416426021365257
4.0288969158099475,0.26599499275499305
4.031675465407058,-0.0758906103232901
4.034454015004168,0.030923269621499595
4.037232564601278,-0.08035785071438772
4.040011114198388,-0.06899755705498023
4.042789663795499,-0.039698641504798786
4.04556821339261,0.02930410457575788
4.04834676298972,-0.1430536294811578
4.05112531258683,0.031074789042546527
4.05390386218394,0.08176614801427935
4.0566824117810505,0.14387304109204713
4.059460961378161,-0.09171258981640355
4.062239510975271,-0.1384995507111804
4.065018060572381,-0.06979164595411176
4.067796610169492,0.16860240311431854
4.0705751597666024,-0.14011857422256374
4.073353709363713,0.011254625440089126
4.076132258960823,-0.05692674813444824
4.078910808557933,-0.0075119754379602555
4.081689358155043,0.38983852803139984
4.0844679077521535,0.6041148357920194
4.087246457349264,0.9791950797176877
4.090025006946374,1.2027652113536529
4.092803556543485,1.2297670740204387
4.095582106140595,1.012261684846186
4.0983606557377055,0.9212002433063009
4.101139205334816,0.4729093940056889
4.103917754931926,0.5170491984768082
4.106696304529036,-0.05250927244254072
4.109474854126146,-0.1623253923637581
4.1122534037232565,0.2237875313082461
4.115031953320367,-0.02962170198616793
4.117810502917477,0.08857458107191063
4.120589052514588,0.05638784447987266
4.123367602111698,0.15977061429998382
4.1261461517088085,0.09993290542877759
4.128924701305919,0.15269727873677497
4.131703250903029,0.013864821597973429
4.134481800500139,0.08202249446719845
4.137260350097249,-0.08316136485292806
4.14003889969436,0.024784889615261037
4.14281744929147,-0.12098095819381705
4.145595998888581,0.017277461790091427
4.148374548485691,0.3148389382858652
4.151153098082801,0.033646601787115996
4.1539316476799115,0.26467529438934734
4.156710197277022,-0.02245056237002838
4.159488746874132,0.3500856565053479
4.162267296471242,0.09665533682371051
4.165045846068352,0.09685437015518614
4.167824395665463,-0.31015679149191877
4.170602945262574,0.06100943057862998
4.173381494859684,-0.046262635213109256
4.176160044456794,-0.11943641144285251
4.178938594053904,0.06357248410983882
4.1817171436510145,-0.10420619001234264
4.184495693248125,0.14977932408024658
4.187274242845235,0.2541891884224648
4.190052792442345,-0.07526892427025109
4.192831342039455,0.207574187080768
4.195609891636566,0.2694938247610368
4.198388441233677,-0.1495964617329248
4.201166990830787,0.0788894839883846
4.203945540427897,0.3006113032444686
4.206724090025007,-0.15216352896778404
4.209502639622118,0.13520072888333773
4.212281189219228,0.01998474643997092
4.215059738816338,0.10805629957888901
4.217838288413448,-0.012647953050258348
4.220616838010558,0.1292701848210605
4.2233953876076695,0.21661225725799668
4.22617393720478,-0.06467817700215081
4.22895248680189,-0.05709718028614684
4.231731036399,0.29523387059485223
4.23450958599611,0.03825854444922232
4.237288135593221,0.23296823505278894
4.240066685190331,0.008612540163146972
4.242845234787441,0.14128075435165394
4.245623784384551,-0.025731564041741657
4.248402333981662,0.05324816494357979
4.2511808835787726,0.17782759364863615
4.253959433175883,0.013393719552270662
4.256737982772993,0.1943570600959823
4.259516532370103,-0.0864033690424804
4.262295081967213,0.15181353243506662
4.265073631564324,-0.10551938711517803
4.267852181161434,-0.13423710656587368
4.270630730758544,-0.018907965827675646
4.273409280355654,-0.1359272443596389
4.276187829952765,-0.04861036815867004
4.278966379549876,-0.1721686354298528
4.281744929146986,0.20724550676709172
4.284523478744096,0.06401967981417994
4.287302028341206,0.0777470411357369
4.290080577938316,-0.027051407608428234
4.292859127535427,-0.3295518923364751
4.295637677132537,0.24867167867478338
4.298416226729647,-0.13824503903437277
4.301194776326758,0.0656004996134471
4.303973325923868,0.03146516182456139
4.306751875520979,0.060269365596235205
4.309530425118089,0.11112333447881521
4.312308974715199,-0.0019323735729912112
4.315087524312309,-0.08941413799405885
4.3178660739094195,-0.06846114506931714
4.32064462350653,0.10022651242685696
4.32342317310364,0.4143746110053604
4.32620172270075,0.5044457587923085
4.328980272297861,0.12643650460140002
4.331758821894971,0.22176685012748693
4.334537371492082,0.2528708938073456
4.337315921089192,0.19769024501311802
4.340094470686302,0.4026954961221859
4.342873020283412,0.30929678923601256
4.3456515698805225,0.4004388422921783
4.348430119477633,0.28045819926161686
4.351208669074743,-0.084939414282143
4.353987218671854,0.030735018044981494
4.356765768268964,0.22222658177889953
4.359544317866074,0.18129777316426995
4.362322867463185,-0.05213561845347417
4.365101417060295,0.2816081994743082
4.367879966657405,0.23035266520662664
4.370658516254515,0.04321041221638286
4.3734370658516255,0.029895142841482508
4.376215615448736,0.25979830496475653
4.378994165045847,-0.15773404930963084
4.381772714642957,0.2890502379881593
4.384551264240067,0.0874197203619353
4.3873298138371775,0.11792328563569773
4.390108363434288,0.03726593519769523
4.392886913031398,-0.18498113125142074
4.395665462628508,0.13427723650735923
4.398444012225618,0.46912887293146693
4.4012225618227285,-0.16342029901453714
4.404001111419839,-0.06936391658568057
4.40677966101695,0.10315481572851734
4.40955821061406,-0.3218098829660781
4.41233676021117,-0.08290847187173904
4.4151153098082805,-0.0748935949062699
4.417893859405391,0.27354361495360924
4.420672409002501,0.09525564962638756
4.423450958599611,-0.012892062360037817
4.426229508196721,0.007798199549267367
4.4290080577938316,-0.3694274458601786
4.431786607390943,0.027119363199713215
4.434565156988053,0.15430891955264361
4.437343706585163,-0.00705854253216254
4.440122256182273,-0.03915158136693519
4.4429008057793835,-0.02511233590582854
4.445679355376494,-0.11485144672032065
4.448457904973604,0.005535918300070082
4.451236454570714,-0.2986863746893293
4.454015004167824,0.012973181731893813
4.4567935537649355,0.023803145246537847
4.459572103362046,0.21763021325414106
4.462350652959156,0.08252529234529057
4.465129202556266,0.12067507879324164
4.467907752153376,0.019922051815618992
4.4706863017504865,0.36714716925752
4.473464851347597,0.15712555046912943
4.476243400944707,0.2113988550426637
4.479021950541817,0.4144435985115365
4.481800500138927,0.9620614124866903
4.4845790497360385,1.3537399704831763
4.487357599333149,1.468368850093516
4.490136148930259,0.9991997178461751
4.492914698527369,1.0577170755861787
4.495693248124479,0.5807027227271925
4.49847179772159,0.34866436963785474
4.5012503473187,0.45118679013520946
4.50402889691581,0.2818419376907141
4.50680744651292,-0.017698205310133684
4.509585996110031,-0.006762171128337572
4.5123645457071415,-0.06112536519253144
4.515143095304252,-0.16386531623795114
4.517921644901362,0.08272077360407244
4.520700194498472,-0.17762092217562814
4.523478744095582,-0.151097732313925
4.526257293692693,0.16456195722418523
4.529035843289803,-0.029532188591544967
4.531814392886913,0.02917009032898551
4.534592942484024,-0.04178498663927822
4.537371492081134,0.1196999228300571
4.5401500416782445,0.16092102955364526
4.542928591275355,0.21151585819461577
4.545707140872465,0.07275015311844525
4.548485690469575,0.13300537204362672
4.551264240066685,0.07922705121606269
4.554042789663796,-0.08891813823184297
4.556821339260906,0.11961140027201599
4.559599888858016,-0.21288904516261242
4.562378438455127,0.40223048433650826
4.565156988052237,-0.10859459014102374
4.567935537649348,-0.11239544468974821
4.570714087246458,0.07865385734788145
4.573492636843568,-0.024861797928882132
4.576271186440678,-0.03198905293374956
4.579049736037788,0.33786140098065515
4.581828285634899,-0.047712694550278295
4.584606835232009,0.17134301962686488
4.58738538482912,0.21110957183455542
4.59016393442623,0.03737874660600408
4.59294248402334,-0.05863073659027086
4.595721033620451,0.013279320923008906
4.598499583217561,-0.01834969481613825
4.601278132814671,-0.06323715279638849
4.604056682411781,-0.2662391466743492
4.6068352320088914,-0.14235919994285
4.609613781606002,-0.15472647534223916
4.612392331203113,-0.29983493259180144
4.615170880800223,-0.04801913983342513
4.617949430397333,-0.25699995685722515
4.620727979994443,0.03033789273815762
4.623506529591554,0.12065212194009695
4.626285079188664,0.1189512111206722
4.629063628785774,-0.09255712509707928
4.631842178382884,0.06209350630895039
4.6346207279799945,0.022463314862022108
4.637399277577105,-0.19741218814351513
4.640177827174216,0.18088963538434227
4.642956376771326,-0.14377805156350468
4.645734926368436,-0.15661746987798295
4.648513475965546,-0.06534031142578162
4.651292025562657,0.08432087892313779
4.654070575159767,0.1561835303760741
4.656849124756877,0.20608297118346872
4.659627674353987,0.12536505114127572
4.6624062239510975,-0.17448088965093292
4.665184773548209,-0.10019004075266538
4.667963323145319,0.05969668213720677
4.670741872742429,-0.3427803318785746
4.673520422339539,0.1351535714938581
4.6762989719366495,-0.12347001509234125
4.67907752153376,0.16223471304078266
4.68185607113087,0.052415010192248014
4.68463462072798,-0.05483390956924364
4.68741317032509,0.10403559393365318
4.690191719922201,-0.09184439000473692
4.692970269519312,0.0951271589766379
4.695748819116422,0.06857329080095671
4.698527368713532,-0.14899685980171773
4.701305918310642,0.008274787801707054
4.7040844679077525,0.07255241242864262
4.706863017504863,0.22638203556751496
4.709641567101973,0.3366541555796274
4.712420116699083,0.6157411453032469
4.715198666296193,0.23681554953352207
4.717977215893304,0.029764124575240247
4.720755765490415,0.03848126827876888
4.723534315087525,0.30182007326839805
4.726312864684635,0.35299840194460846
4.729091414281745,0.394089399751341
4.7318699638788555,0.5031844055621264
4.734648513475966,0.1034351271326345
4.737427063073076,0.3553198583351465
4.740205612670186,0.3296241483305507
4.742984162267297,0.18766486740344332
4.7457627118644075,0.23225654385971525
4.748541261461518,0.4306358279916295
4.751319811058628,0.3349678522426636
4.754098360655738,-0.0026690472234439377
4.756876910252848,0.3890968716938354
4.7596554598499585,-0.14538623959844454
4.762434009447069,0.22582850527790355
4.765212559044179,0.07859186633211789
4.767991108641289,0.1283429769984906
4.7707696582384,0.19716867635174223
4.7735482078355105,0.09554842257222476
4.776326757432621,0.24030935720345645
4.779105307029731,0.09055611219927273
4.781883856626841,0.1810776706268284
4.784662406223951,-0.06986895572426148
4.7874409558210616,0.05146403047065201
4.790219505418172,-0.20900369260819698
4.792998055015282,0.029616335450237903
4.795776604612393,-0.012017215269906506
4.798555154209503,0.12801849525703266
4.8013337038066135,-0.059497863847892296
4.804112253403724,0.04314266104828102
4.806890803000834,-0.17474980891979877
4.809669352597944,-0.16480241135120108
4.812447902195054,-0.1934473664182576
4.815226451792165,-0.09714302238753517
4.818005001389275,-0.147855560007482
4.820783550986386,-0.1571091652653765
4.823562100583496,-0.1247849488886828
4.826340650180606,-0.16335898433693655
4.8291191997777165,0.12647088941463094
4.831897749374827,-0.04428788740428723
4.834676298971937,0.10725025427635224
4.837454848569047,-0.11643788867944309
4.840233398166157,0.18137004315656904
4.843011947763268,0.09634126351771638
4.845790497360378,-0.08993366840345329
4.848569046957489,-0.22957914211727393
4.851347596554599,-0.0775004640858163
4.854126146151709,0.11986308894105266
4.85690469574882,-0.15250978466148382
4.85968324534593,-0.18539649737462047
4.86246179494304,0.0068121297870860536
4.86524034454015,-0.33944658402873507
4.86801889413726,0.1210212929852724
4.870797443734371,0.3299035179681861
4.873575993331482,-0.13728933399082194
4.876354542928592,-0.042698467061606085
4.879133092525702,0.1915117898915655
4.881911642122812,0.23824393730670518
4.884690191719923,0.3424009473824696
4.887468741317033,-0.1825322404418807
4.890247290914143,-0.012149386207847463
4.893025840511253,0.16099278434247774
4.895804390108363,0.2205582147487913
4.8985829397054745,-0.2933207224931397
4.901361489302585,-0.25283072138653956
4.904140038899695,-0.061622257647548376
4.906918588496805,-0.17606113713850155
4.909697138093915,-0.0021325400030031065
4.912475687691026,-0.1824277080824021
4.915254237288136,0.10592425725256147
4.918032786885246,0.17085908194232768
4.920811336482356,-0.21983687595914517
4.9235898860794665,0.15661245349069283
4.926368435676578,0.0652951288139455
4.929146985273688,0.11033547301797858
4.931925534870798,0.167798016212639
4.934704084467908,-0.24869960684155756
4.937482634065018,0.21956228285892945
4.940261183662129,-0.06070286134476228
4.943039733259239,-0.012637223639120182
4.945818282856349,-0.2478359826858933
4.948596832453459,0.03967751869375577
4.95137538205057,0.03515637725649284
4.954153931647681,0.04392963788005887
4.956932481244791,0.053981660047825224
4.959711030841901,-0.03165777573486831
4.962489580439011,-0.016272267760142786
4.965268130036121,-0.007914372378082252
4.968046679633232,-0.24843758958143733
4.970825229230342,-0.25991290038079184
4.973603778827452,0.20624495009610772
4.976382328424563,0.14184481043106825
4.979160878021673,-0.1582757066577367
4.981939427618784,0.01132048602016782
4.984717977215894,0.12024641348623336
4.987496526813004,-0.009617078191592474
4.990275076410114,0.103251977000907
4.9930536260072245,0.042665847169426806
4.995832175604335,-0.20147848391754505
4.998610725201445,-0.3137558611342027
5.001389274798555,-0.009211554993034622
5.004167824395666,0.14902529937839082
5.006946373992776,0.052248871482653336
5.009724923589887,0.026058134302800927
5.012503473186997,-0.24069007120003913
5.015282022784107,-0.0858154660366919
5.018060572381217,0.165871261454756
5.0208391219783275,0.05641817156331569
5.023617671575438,-0.17189506204891866
5.026396221172548,0.39576152018440497
5.029174770769659,-0.23090457338425646
5.031953320366769,-0.16136066421319714
5.0347318699638794,0.01086466704813101
5.03751041956099,-0.05469403870261611
5.0402889691581,0.1273831566867253
5.04306751875521,0.2093242896203495
5.04584606835232,0.0874081476410898
5.0486246179494305,-0.3064537166470361
5.051403167546541,0.15143792147887405
5.054181717143652,0.26800604471958683
5.056960266740762,-0.21564347881258836
5.059738816337872,-0.226195869090138
5.0625173659349825,0.053994009053184515
5.065295915532093,0.07741773833389913
5.068074465129203,-0.08838908932039122
5.070853014726313,0.012582202711230762
5.073631564323423,0.10576200413053913
5.0764101139205335,-0.001463604367296699
5.079188663517644,-0.16473109538632655
5.081967213114755,-0.11940472766624162
5.084745762711865,0.21070287781750993
5.087524312308975,-0.003301343645857898
5.0903028619060855,-0.06995929273791812
5.093081411503196,-0.16422134878138167
5.095859961100306,0.21231984066882867
5.098638510697416,0.01858907864590521
5.101417060294526,0.10775779896441894
5.104195609891637,-0.025621470960854643
5.106974159488748,0.1267535478810896
5.109752709085858,0.1031871986945666
5.112531258682968,0.19829053486504045
5.115309808280078,-0.17578666633758244
5.1180883578771885,0.12353500208513081
5.120866907474299,-0.05660988854404475
5.123645457071409,-0.28283773832435993
5.126424006668519,-0.21345751404490934
5.129202556265629,0.005626337928114211
5.1319811058627405,0.057848789859441835
5.134759655459851,0.0878033260244862
5.137538205056961,0.04591096801936697
5.140316754654071,0.24446304305476751
5.143095304251181,0.2895485097118205
5.1458738538482915,0.5791803553961686
5.148652403445402,0.9912480611898644
5.151430953042512,0.9738561155358751
5.154209502639622,1.098528763086425
5.156988052236732,1.2916698456214177
5.1597666018338435,1.0154279929112808
5.162545151430954,0.7388404611241741
5.165323701028064,0.5738089500706778
5.168102250625174,0.27940956852720134
5.170880800222284,0.13204272992258012
5.173659349819395,0.023210376435773304
5.176437899416505,0.16167985274351995
5.179216449013615,0.10040685850902081
5.181994998610725,0.19911388211082015
5.184773548207836,-0.040540013437474466
5.1875520978049465,-0.01994102097231455
5.190330647402057,-0.00476213834321242
5.193109196999167,-0.13217093186201317
5.195887746596277,0.0929997728575553
5.198666296193387,-0.12493762210161152
5.201444845790498,-0.17810381928366015
5.204223395387608,-0.07166541522274754
5.207001944984718,-0.10230184554873013
5.209780494581829,0.14018337946354686
5.212559044178939,0.5115148568628605
5.2153375937760496,-0.04018618480610303
5.21811614337316,0.06548332740642804
5.22089469297027,-0.003854955576298042
5.22367324256738,0.018718178020839325
5.22645179216449,0.14267404118412438
5.229230341761601,0.2879544480457686
5.232008891358711,-0.15867941857416862
5.234787440955821,-0.07872524184997601
5.237565990552932,0.12185069811352546
5.240344540150042,0.0016466633624120659
5.243123089747153,0.12658150160937282
5.245901639344263,0.19676631105060058
5.248680188941373,0.2431003752810832
5.251458738538483,-0.11987072040408624
5.254237288135593,0.08074820896776973
5.257015837732704,-0.2222452918841758
5.259794387329814,0.10874135763961759
5.262572936926925,0.1889384012340741
5.265351486524035,-0.06617482219759872
5.268130036121145,-0.19810193297266893
5.270908585718256,0.10335989838496491
5.273687135315366,0.23452452727451534
5.276465684912476,-0.13789145319329413
5.279244234509586,-0.12153161985736716
5.2820227841066965,-0.09200852745536883
5.284801333703807,0.24565014222550915
5.287579883300917,-0.06222138041763904
5.290358432898028,0.09367392299564858
5.293136982495138,-0.13108170833693839
5.295915532092248,-0.01484497358503751
5.298694081689359,0.0597706205659857
5.301472631286469,0.3743804223568241
5.304251180883579,0.046203655110353875
5.307029730480689,0.07543002793704584
5.3098082800777995,-0.0036487352062289937
5.31258682967491,-0.01431403852736852
5.315365379272021,-0.012022574391802845
5.318143928869131,-0.019619988344969093
5.320922478466241,0.020540877687752555
5.323701028063351,-0.018908264214104745
5.326479577660462,0.3535108396759403
5.329258127257572,-0.13008529116328937
5.332036676854682,-0.17211745072855938
5.334815226451792,-0.09811938100857182
5.3375937760489025,-0.13666267180100042
5.340372325646014,-0.004356605634552443
5.343150875243124,0.02130458013167727
5.345929424840234,0.03483686525848895
5.348707974437344,-0.028261010399436202
5.3514865240344545,-0.01029769932284612
5.354265073631565,0.08111823021708582
5.357043623228675,0.0668539679444498
5.359822172825785,-0.020537937253380333
5.362600722422895,0.30406812974558284
5.3653792720200055,0.18664448942678136
5.368157821617117,-0.08273416355309099
5.370936371214227,-0.19780516674897855
5.373714920811337,-0.05930980317024001
5.376493470408447,0.2226020165783412
5.3792720200055575,0.026205691629512293
5.382050569602668,-0.052620992852549925
5.384829119199778,0.06350725226413674
5.387607668796888,0.1124914932083759
5.390386218393998,0.012114374822853047
5.393164767991109,0.3332034453208363
5.39594331758822,0.08474256212058029
5.39872186718533,0.09034644785272031
5.40150041678244,0.2815095310643295
5.40427896637955,0.16408969505071352
5.4070575159766605,0.18941480682827985
5.409836065573771,0.1346723629528458
5.412614615170881,0.2703489878878834
5.415393164767991,0.253610888142052
5.418171714365102,0.39057976297407915
5.4209502639622125,0.14945453598094968
5.423728813559323,0.39883062605334274
5.426507363156433,0.05842053142321274
5.429285912753543,0.08922423195146514
5.432064462350653,0.028626162039012484
5.4348430119477635,0.052600789113936085
5.437621561544874,0.35922899392430274
5.440400111141984,0.2185648436719529
5.443178660739094,0.19222800308736188
5.445957210336205,-0.2679828301969089
5.4487357599333155,0.18267867248003283
5.451514309530426,0.08409316689707189
5.454292859127536,0.11930391955602884
5.457071408724646,0.20902415768912658
5.459849958321756,0.2705259388610159
5.462628507918867,0.037768640809562784
5.465407057515977,-0.15465553235889198
5.468185607113087,0.18126920751240094
5.470964156710198,0.08744889549262706
5.473742706307308,-0.14743659491744263
5.4765212559044185,0.2695336262245146
5.479299805501529,-0.3121710198646096
5.482078355098639,0.2258042336060319
5.484856904695749,-0.04528182893948392
5.487635454292859,0.07020596585597466
5.49041400388997,0.013920460480924431
5.49319255348708,-0.19527739297202473
5.495971103084191,-0.16784578425967403
5.498749652681301,-0.22545298082788634
5.501528202278411,0.08066986391380444
5.5043067518755215,-0.3176733556903915
5.507085301472632,-0.04591564754169863
5.509863851069742,0.12062015267537642
5.512642400666852,0.09680484277654794
5.515420950263962,0.15581880847395896
5.518199499861073,-0.05188375339796129
5.520978049458183,0.042763885121925506
5.523756599055294,-0.07589890955269674
5.526535148652404,-0.3320980234656579
5.529313698249514,-0.2005005967834717
5.532092247846625,-0.1515488659017297
5.534870797443735,0.18979592835618514
5.537649347040845,0.12964274575209148
5.540427896637955,-0.04597137883079011
5.543206446235065,-0.08805372559775818
5.545984995832176,-0.060132310401719895
5.548763545429287,0.16512300796498425
5.551542095026397,0.07262733159623128
5.554320644623507,-0.08629059089604994
5.557099194220617,-0.15145683499894413
5.559877743817728,-0.15104860428064523
5.562656293414838,-0.20675382870590192
5.565434843011948,-0.3681959429745949
5.568213392609058,0.034092535753476115
5.5709919422061684,-0.28634841979939524
5.5737704918032795,0.23324523190247015
5.57654904140039,0.3997934090301673
5.5793275909975,-0.10776259790113182
5.58210614059461,0.21622354225639256
5.58488469019172,-0.14325564701333113
5.587663239788831,-0.06126904217817404
5.590441789385941,0.15194567137219192
5.593220338983051,-0.12221968761193891
5.595998888580161,0.11260296627690783
5.5987774381772715,0.21717618124319704
5.601555987774383,0.32719532067165646
5.604334537371493,-0.007265083504570083
5.607113086968603,-0.061451154396377786
5.609891636565713,0.06606974261871838
5.612670186162823,-0.0818366534330821
5.615448735759934,-0.05097578351410907
5.618227285357044,-0.013356387322898669
5.621005834954154,0.006830744970512201
5.623784384551264,0.02229591752970391
5.626562934148375,-0.09445639460460138
5.629341483745486,0.03709148615993595
5.632120033342596,-0.08322895561810618
5.634898582939706,0.0021909173377254896
5.637677132536816,-0.09687093384731893
5.6404556821339265,-0.34066277226744623
5.643234231731037,-0.007605266489846241
5.646012781328147,-0.16462586243567362
5.648791330925257,-0.12695510568545462
5.651569880522368,0.02052914345782736
5.654348430119478,-0.3414719600284394
5.657126979716589,0.08497950769036909
5.659905529313699,-0.10123968006951367
5.662684078910809,-0.2535655214925774
5.665462628507919,-0.050297593579376854
5.6682411781050295,0.026118253854192582
5.67101972770214,-0.16969504889782305
5.67379827729925,0.003906540078664312
5.67657682689636,0.41585828780798856
5.679355376493471,0.0943790102125159
5.682133926090581,-0.06582911670124458
5.684912475687692,0.22089289353609953
5.687691025284802,-0.0649804425572309
5.690469574881912,-0.18041416420824238
5.693248124479022,-0.1077250793920249
5.6960266740761325,-0.17684107211766312
5.698805223673243,0.33907535179817616
5.701583773270353,-0.062259538246344365
5.704362322867464,-0.08639162320952669
5.707140872464574,0.20311301618006486
5.7099194220616845,0.2876156628740851
5.712697971658795,0.04615635114864939
5.715476521255905,0.15970089952117136
5.718255070853015,-0.14087173419053842
5.721033620450125,0.15334200323947658
5.7238121700472355,-0.13171193980780718
5.726590719644346,0.13805974129782736
5.729369269241456,-0.07876644607685176
5.732147818838567,-0.11160314989569423
5.734926368435677,-0.06762394923555445
5.7377049180327875,-0.11485078798328924
5.740483467629898,0.26184997602800286
5.743262017227008,-0.074250771345824
5.746040566824118,-0.31087590826837913
5.748819116421228,-0.05644096852835842
5.7515976660183386,-0.19400826786518996
5.754376215615449,-0.1915684400930619
5.75715476521256,-0.07361102028798962
5.75993331480967,-0.14313372408743222
5.76271186440678,0.003686705607643106
5.7654904140038905,-0.25407385282930106
5.768268963601001,-0.08558659377622348
5.771047513198111,0.05572339212739661
5.773826062795221,-0.04607243709490781
5.776604612392331,0.14270357686436166
5.779383161989442,0.06531018323561817
5.782161711586553,0.34266540960374153
5.784940261183663,0.0538513551860061
5.787718810780773,-0.20512083474777015
5.790497360377883,0.23381621342367093
5.7932759099749935,-0.15650959172183937
5.796054459572104,-0.005494577148277828
5.798833009169214,-0.05104547131001861
5.801611558766324,0.12332954291112508
5.804390108363434,-0.15585784525466695
5.807168657960545,0.05232015299073821
5.809947207557656,0.03598587290153053
5.812725757154766,-0.08863321195677865
5.815504306751876,0.007414219694012713
5.818282856348986,0.05740582467518007
5.821061405946097,0.061421840009493356
5.823839955543207,-0.07001246235495942
5.826618505140317,-0.1499277285901616
5.829397054737427,0.04108491755397249
5.832175604334537,0.06765035589910705
5.8349541539316485,-0.07222747500823717
5.837732703528759,0.033828151605793465
5.840511253125869,0.028349243177515707
5.843289802722979,-0.02487775433752619
5.846068352320089,0.4968528768029494
5.8488469019172,-0.184774593182501
5.85162545151431,0.2808179074727041
5.85440400111142,0.30618380377992865
5.85718255070853,0.6521292926888369
5.859961100305641,0.9731476036070091
5.8627396499027515,1.2327978048402584
5.865518199499862,1.054892139043308
5.868296749096972,0.9440261318569981
5.871075298694082,0.7078819598488443
5.873853848291192,0.5420277137076192
5.876632397888303,0.3220980524871209
5.879410947485413,0.4989294080023518
5.882189497082523,0.11737357476156404
5.884968046679633,0.06939899385597348
5.887746596276744,-0.18606698984030895
5.890525145873855,-0.3547390824021531
5.893303695470965,-0.28329195264806456
5.896082245068075,0.01348563499139109
5.898860794665185,0.08934015604501264
5.901639344262295,0.28840678909373996
5.904417893859406,0.022186841789141765
5.907196443456516,0.1291212417093903
5.909974993053626,-0.08728077168508952
5.912753542650737,-0.032684427111767306
5.915532092247847,0.08002249583719943
5.918310641844958,-0.18004558094565187
5.921089191442068,-0.07186380382018441
5.923867741039178,0.13255404851237465
5.926646290636288,0.1646444083731333
5.929424840233398,0.1294062537879533
5.932203389830509,-0.2853814541366362
5.934981939427619,-0.06938488334583603
5.93776048902473,0.1194188592193124
5.94053903862184,0.1314910355109347
5.94331758821895,0.1133695259574184
5.946096137816061,-0.2534827121914856
5.948874687413171,-0.14108647242814185
5.951653237010281,0.4836644643463057
5.954431786607391,-0.2897615984793847
5.9572103362045015,0.20247737890332626
5.959988885801612,0.11917090616080586
5.962767435398722,-0.19367127702852702
5.965545984995833,0.11248303451774114
5.968324534592943,0.025565960699288192
5.971103084190053,-0.05629649262632837
5.973881633787164,-0.20313677073228217
5.976660183384274,-0.10655360037886066
5.979438732981384,-0.11458820379384584
5.982217282578494,0.01838954627910331
5.9849958321756045,-0.033447746284603674
5.987774381772715,-0.2324793970846676
5.990552931369826,-0.40588422704843113
5.993331480966936,-0.037085885901269385
5.996110030564046,0.043714902390066035
5.9988885801611564,0.154524756297302
6.001667129758267,0.04244882907447986
6.004445679355377,-0.26422951442430187
6.007224228952487,0.1179146080795525
6.010002778549597,-0.07824234994752433
6.0127813281467075,-0.1503074006098168
6.015559877743819,0.02128063665142842
6.018338427340929,-0.14703715583886198
6.021116976938039,0.2493665695419697
6.023895526535149,-0.16123878959276758
6.0266740761322595,-0.21447428208842634
6.02945262572937,0.3870678325077769
6.03223117532648,0.0005035852727910241
6.03500972492359,0.02447984155413583
6.0377882745207,0.08456652320960074
6.0405668241178105,0.10020841999497189
6.043345373714922,0.04977788899368849
6.046123923312032,0.015241331472316044
6.048902472909142,0.09173396903329033
6.051681022506252,0.17118197740106506
6.0544595721033625,0.13386519207997577
6.057238121700473,-0.21521384948834896
6.060016671297583,0.18192572045294952
6.062795220894693,0.14923189157423092
6.065573770491803,0.1244420510851418
6.0683523200889145,0.371314805040792
6.071130869686025,-0.0879054007610573
6.073909419283135,0.11385418861441493
6.076687968880245,0.09190553898199111
6.079466518477355,0.026054293133252436
6.0822450680744655,0.00037666424059421
6.085023617671576,0.2758302283943459
6.087802167268686,0.1491200355643549
6.090580716865796,0.2145544115123998
6.093359266462907,0.33002214790011963
6.0961378160600175,0.13777056158444348
6.098916365657128,0.01574225684075567
6.101694915254238,0.3016154801613811
6.104473464851348,0.11818261480043096
6.107252014448458,0.2769869504500641
6.1100305640455685,0.18541289341160738
6.112809113642679,0.30033111301747184
6.115587663239789,0.43175351177300014
6.118366212836899,0.0759795960526784
6.12114476243401,0.13014182618487735
6.1239233120311205,0.19591242971411296
6.126701861628231,0.24734966068019934
6.129480411225341,0.21653363881852428
6.132258960822451,0.27873221962483663
6.135037510419561,0.22266965866265567
6.137816060016672,0.17829387859299334
6.140594609613782,0.2875055576083724
6.143373159210892,0.34811973472471985
6.146151708808003,-0.08409716405703162
6.148930258405113,0.0780199367180201
6.1517088080022235,-0.15145500263156417
6.154487357599334,-0.23437501214628895
6.157265907196444,0.25307311539846283
6.160044456793554,-0.18960382486278238
6.162823006390664,-0.11797345337982774
6.165601555987775,0.10953207497024946
6.168380105584885,0.27817095200165043
6.171158655181995,0.1788301693484628
6.173937204779106,-0.2268456429018894
6.176715754376216,0.11947420394732805
6.1794943039733266,-0.0028626896541900358
6.182272853570437,-0.0784049220558964
6.185051403167547,0.14152551539051503
6.187829952764657,0.16021923833910048
6.190608502361767,0.08257730465568053
6.193387051958878,0.022421781632020868
6.196165601555988,0.11532492571741647
6.198944151153099,-0.1603186849858161
6.201722700750209,-0.1222974727481932
6.204501250347319,0.21026688890663375
6.20727979994443,-0.06558873842770949
6.21005834954154,0.17374648616747645
6.21283689913865,0.04180103654236333
6.21561544873576,-0.02530705229757469
6.21839399833287,0.01580786959024878
6.221172547929981,-0.11767394678959822
6.223951097527092,0.10134451434602153
6.226729647124202,-0.19536579648502625
6.229508196721312,-0.0849121450406858
6.232286746318422,-0.2171977009373382
6.235065295915533,0.07584754783213268
6.237843845512643,-0.13049764340396117
6.240622395109753,-0.27371169121591743
6.243400944706863,0.20200792458102096
6.2461794943039735,0.01235369078495028
6.248958043901084,0.061626551793519196
6.251736593498195,-0.14874868244114975
6.254515143095305,0.39253412853798064
6.257293692692415,0.003284045717677139
6.260072242289525,-0.14216755606604353
6.262850791886636,-0.3007235012149959
6.265629341483746,0.10130271020848719
6.268407891080856,-0.2700242602128529
6.271186440677966,-0.1353337127857888
6.2739649902750765,0.22237932561989163
6.276743539872188,-0.06946739094806022
6.279522089469298,0.06622600886664286
6.282300639066408,-0.12402871116801095
6.285079188663518,-0.03345706635701686
6.287857738260628,-0.14514986285458867
6.290636287857739,0.012471801152689163
6.293414837454849,-0.15957619216714702
6.296193387051959,-0.08554085727525054
6.298971936649069,-0.0692564294135678
6.30175048624618,-0.14242750349539543
6.304529035843291,-0.1442179162193382
6.307307585440401,0.05536553651557812
6.310086135037511,0.03350085954929101
6.312864684634621,0.19405009647541666
6.3156432342317315,0.17823576218264855
6.318421783828842,-0.12073192100186372
6.321200333425952,-0.231457265652494
6.323978883023062,0.0551450269609962
6.326757432620172,-0.18596260602086698
6.329535982217283,0.05013798934637791
6.332314531814394,0.2904296981846314
6.335093081411504,0.09730365415753252
6.337871631008614,0.14230226523763564
6.340650180605724,0.18373527803163742
6.3434287302028345,0.09739723055934023
6.346207279799945,-0.38382310063838554
6.348985829397055,0.11967245166501482
6.351764378994165,-0.039010597901323815
6.354542928591276,-0.0940485471674523
6.357321478188386,0.15497424521419453
6.360100027785497,-0.18316415045215292
6.362878577382607,0.1274016491267528
6.365657126979717,0.04787870246405345
6.368435676576827,-0.08829368164380998
6.3712142261739375,-0.2636403556015924
6.373992775771048,-0.13524678528704392
6.376771325368158,0.08087989875830733
6.379549874965269,-0.32270701563554827
6.382328424562379,-0.2680389230261276
6.3851069741594895,0.16753923722435918
6.3878855237566,0.13357014671454634
6.39066407335371,-0.04496027020740535
6.39344262295082,-0.07408936340031717
6.39622117254793,0.019642667171201174
6.3989997221450405,0.2044362511559294
6.401778271742151,0.2071242513567748
6.404556821339261,-0.4433048486211584
6.407335370936372,0.2091614416736746
6.410113920533482,-0.11477465327325401
6.4128924701305925,0.10499780985471557
6.415671019727703,0.08552163830762602
6.418449569324813,0.10408120963132633
6.421228118921923,0.13471962409533828
6.424006668519033,-0.08380549482918727
6.426785218116144,-0.08469014641384102
6.429563767713254,0.12233030779258441
6.432342317310365,-0.3299535829764582
6.435120866907475,0.040291506928451494
6.437899416504585,0.10342619594324703
6.4406779661016955,-0.2819890167563198
6.443456515698806,0.15696855176241206
6.446235065295916,0.06772594470784526
6.449013614893026,0.029214767795890884
6.451792164490136,0.11884722909942384
6.454570714087247,-0.176397172149565
6.457349263684358,-0.05474714090023588
6.460127813281468,0.10470432316518323
6.462906362878578,0.021148209763959275
6.465684912475688,0.09039821128729479
6.4684634620727985,0.003003720691058087
6.471242011669909,-0.0039078546289459375
6.474020561267019,-0.09785783694886353
6.476799110864129,0.2521499953956308
6.479577660461239,-0.11876999854474109
6.48235621005835,-0.004982912461623494
6.485134759655461,-0.0799989113545464
6.487913309252571,-0.12391488748118877
6.490691858849681,0.05212075781588598
6.493470408446791,0.20284520750126414
6.496248958043902,0.19083807909325787
6.499027507641012,-0.04304298403191549
6.501806057238122,0.18527270515095615
6.504584606835232,0.3110524775160394
6.507363156432342,-0.31683630868974844
6.5101417060294535,-0.1651735146579018
6.512920255626564,-0.2293566052313875
6.515698805223674,0.028732142033584245
6.518477354820784,-0.07792419461232646
6.521255904417894,0.1372735045733
6.524034454015005,0.005061347378962644
6.526813003612115,-0.03283574916560632
6.529591553209225,-0.23116429650634432
6.532370102806335,0.03414974307709956
6.535148652403446,-0.04578807090088485
6.5379272020005565,0.02151566874472146
6.540705751597667,0.03319164953504036
6.543484301194777,0.41239704824521756
6.546262850791887,0.4290989773250843
6.549041400388997,0.5946970400932837
6.551819949986108,0.9887208615138982
6.554598499583218,1.188825155953784
6.557377049180328,1.1398571132935755
6.560155598777438,0.6926844748436125
6.562934148374549,0.5728839872406161
6.56571269797166,0.4765391464247875
6.56849124756877,0.3762703026888865
6.57126979716588,0.2694642800162509
6.57404834676299,-0.30232792020891097
6.5768268963601,0.1876855184066402
6.579605445957211,-0.11149646831715052
6.582383995554321,0.23650145203930795
6.585162545151431,0.1396877511340189
6.587941094748542,-0.09777556306640407
6.590719644345652,0.10222641232806393
6.593498193942763,0.07034445898476446
6.596276743539873,0.1212667330362567
6.599055293136983,-0.2142069317456628
6.601833842734093,0.06602058063303391
6.6046123923312035,-0.1550961422827667
6.607390941928314,0.1540649138020817
6.610169491525424,0.08289628828269743
6.612948041122535,0.059931457667529754
6.615726590719645,0.12766014599404854
6.618505140316755,0.025372968783996402
6.621283689913866,-0.3224142159595706
6.624062239510976,0.2926141165141195
6.626840789108086,0.2115401228450809
6.629619338705196,-0.13141597568657937
6.6323978883023065,-0.08555675658881028
6.635176437899417,0.10292442869181102
6.637954987496527,0.013662523576067204
6.640733537093638,-0.1877744694614279
6.643512086690748,0.21673643732990913
6.646290636287858,0.1343080383400607
6.649069185884969,-0.020304980841021968
6.651847735482079,0.05611339113694911
6.654626285079189,0.04033248308507829
6.657404834676299,-0.014039572276123074
6.6601833842734095,0.2090506370946773
6.66296193387052,-0.026435878053417114
6.665740483467631,-0.2583879559030795
6.668519033064741,-0.05980172159185033
6.671297582661851,0.4475753112388698
6.6740761322589615,-0.14006589417242987
6.676854681856072,-0.31928133723956753
6.679633231453182,-0.2746937088684783
6.682411781050292,-0.06655556211639642
6.685190330647402,0.09222276561055967
6.6879688802445125,0.30047669589013476
6.690747429841623,-0.02858056174968153
6.693525979438734,-0.025679023672380688
6.696304529035844,-0.1689173624824161
6.699083078632954,-0.1445291166549636
6.7018616282300645,0.08509099702871034
6.704640177827175,0.06838133035947304
6.707418727424285,0.10948608876032996
6.710197277021395,0.0939138048381011
6.712975826618505,-0.09324661944587295
6.7157543762156156,0.10000317976683602
6.718532925812727,0.0686388980272716
6.721311475409837,-0.2281944159520919
6.724090025006947,0.0803537018282255
6.726868574604057,-0.07702249546471661
6.7296471242011675,0.1972612374391731
6.732425673798278,0.06150151639969599
6.735204223395388,-0.271708744521605
6.737982772992498,-0.03755869085287084
6.740761322589608,0.20857807896900882
6.7435398721867195,-0.11702902085104301
6.74631842178383,-0.15177460987674124
6.74909697138094,-0.004480263024321321
6.75187552097805,-0.06534303253602652
6.75465407057516,-0.22715837706449749
6.7574326201722705,0.2371730562032867
6.760211169769381,0.12523956010427212
6.762989719366491,0.013207537917938175
6.765768268963601,-0.12892247254590164
6.768546818560711,-0.016489193170559177
6.7713253681578225,-0.1233627470295833
6.774103917754933,0.2055111446073006
6.776882467352043,0.048100861318461266
6.779661016949153,0.2114499807831699
6.782439566546263,0.38156772159908037
6.785218116143374,0.25963980273042664
6.787996665740484,0.49103030153726424
6.790775215337594,0.3927938044052909
6.793553764934704,0.26842591241259794
6.796332314531815,0.253245687461515
6.7991108641289255,0.30873594351571565
6.801889413726036,0.2075090108838053
6.804667963323146,0.3719181465633338
6.807446512920256,0.08112622002462466
6.810225062517366,-0.005260729744308135
6.813003612114477,0.2941125784435013
6.815782161711587,0.0913905063533976
6.818560711308697,0.010742719355812391
6.821339260905808,0.27873280732406913
6.824117810502918,0.0015473904450288567
6.8268963601000285,-0.07872506443976279
6.829674909697139,0.116648016624038
6.832453459294249,0.3252557113520367
6.835232008891359,0.0843622460288927
6.838010558488469,0.32001353183060044
6.84078910808558,-0.17862850843717576
6.84356765768269,0.11592627299363992
6.8463462072798,0.1274835691167112
6.849124756876911,0.016595198987992815
6.851903306474021,0.21589365496480062
6.854681856071132,0.3083796244698632
6.857460405668242,-0.009158344779081486
6.860238955265352,0.09216086530084674
6.863017504862462,0.13864165382177504
6.865796054459572,-0.021625551910385406
6.868574604056683,-0.14158964659506026
6.871353153653793,-0.08085057592945173
6.874131703250904,0.06484549761091726
6.876910252848014,0.12304573288977148
6.879688802445124,-0.14975805582562238
6.882467352042235,-0.05434936679544547
6.885245901639345,0.13483624994498042
6.888024451236455,-0.2802056442420755
6.890803000833565,0.08551450464494655
6.893581550430675,0.21169841140445486
6.896360100027786,0.21389340854315267
6.899138649624897,0.1167464383934082
6.901917199222007,-0.10272378488965414
6.904695748819117,0.07846967159401409
6.907474298416227,0.11654151228498774
6.910252848013338,-0.11156311514047226
6.913031397610448,0.24217418481796976
6.915809947207558,-0.05921610977961486
6.918588496804668,-0.12362482238375275
6.9213670464017785,-0.07102162044838967
6.924145595998889,-0.1224027428262529
6.926924145596,0.010834767002343282
6.92970269519311,-0.11127168928314697
6.93248124479022,-0.06986101721842122
6.93525979438733,-0.2506491750974756
6.938038343984441,-0.07963984087872009
6.940816893581551,-0.023395125458933203
6.943595443178661,-0.03515718375183771
6.946373992775771,0.13374371247411812
6.9491525423728815,0.06527950662863674
6.951931091969993,0.39178411180427913
6.954709641567103,0.10123303012065805
6.957488191164213,-0.003849315504670142
6.960266740761323,0.2865512178046729
6.9630452903584334,0.0033771331097074836
6.965823839955544,-0.04429172941149465
6.968602389552654,-0.10546453857472453
6.971380939149764,0.04478092175934737
6.974159488746874,-0.1900591576270735
6.976938038343985,0.07732787770108193
6.979716587941096,0.21349094023576823
6.982495137538206,-0.2764389585719988
6.985273687135316,-0.32856870829660945
6.988052236732426,-0.16594466520807372
6.9908307863295365,-0.3117972660965681
6.993609335926647,-0.07219428209179407
6.996387885523757,-0.10802359748418211
6.999166435120867,0.0015835342420119785
7.001944984717977,-0.10667099441876532
7.004723534315088,-0.25308384921712285
7.007502083912199,0.0326331258719595
7.010280633509309,0.039434060293015424
7.013059183106419,-0.15338411733718285
7.015837732703529,-0.04154382973663747
7.0186162823006395,-0.04627204349242749
7.02139483189775,0.20816436892342458
7.02417338149486,-0.12478149787983076
7.02695193109197,-0.00031068828759136304
7.029730480689081,0.06539802271897999
7.0325090302861915,0.20889249845810423
7.035287579883302,-0.05438743047333687
7.038066129480412,0.157857720092362
7.040844679077522,-0.031749702759664426
7.043623228674632,0.06919348534241146
7.0464017782717425,0.10890329016753172
7.049180327868853,0.17904703398332802
7.051958877465963,0.23134443299696286
7.054737427063074,-0.03457176360751101
7.057515976660184,-0.12032779345283559
7.0602945262572945,-0.047588502622671676
7.063073075854405,-0.069769075731851
7.065851625451515,0.08853335459424834
7.068630175048625,-0.0599147693419099
7.071408724645735,-0.041005303382407106
7.0741872742428455,-0.09397467763170775
7.076965823839956,-0.05281237788096979
7.079744373437066,0.04920639639024592
7.082522923034177,0.11805389571535872
7.085301472631287,0.14752191488756886
7.0880800222283975,0.27914433041922315
7.090858571825508,0.4381488378095488
7.093637121422618,0.5994386222970132
7.096415671019728,0.9323274628682786
7.099194220616838,1.2285102340205418
7.101972770213949,1.2850890688630268
7.104751319811059,1.1848832657288564
7.10752986940817,0.7671129427240835
7.11030841900528,0.5257344926198761
7.11308696860239,0.29118968656256156
7.1158655181995005,0.20550675127612344
7.118644067796611,-0.1404385237919811
7.121422617393721,-0.03771066556133463
7.124201166990831,-0.1509871145118066
7.126979716587941,0.1588355752724694
7.129758266185052,-0.15003905494074934
7.132536815782162,0.1150643261836789
7.135315365379273,0.07454258266135895
7.138093914976383,-0.06690608615754202
7.140872464573493,-0.21799082824022148
7.1436510141706036,0.010609571036035752
7.146429563767714,-0.08843044615371397
7.149208113364824,0.00022720932573054047
7.151986662961934,0.0798320926502126
7.154765212559044,0.10210332936621513
7.157543762156155,-0.024145296983757624
7.160322311753266,-0.009611376858997192
7.163100861350376,0.2759162102403983
7.165879410947486,0.0876996571483276
7.168657960544596,-0.0537145480535596
7.171436510141707,-0.1710953020976061
7.174215059738817,-0.35890133714880634
7.176993609335927,-0.0936992821638713
7.179772158933037,-0.10153249060735073
7.182550708530147,-0.027440263730975318
7.1853292581272585,-0.18957416685307088
7.188107807724369,0.0289944937903086
7.190886357321479,0.24662603699574445
7.193664906918589,0.25950293668373803
7.196443456515699,-0.11489220778022402
7.19922200611281,-0.006097177726191984
7.20200055570992,0.120679701062712
7.20477910530703,0.030167346883986958
7.20755765490414,0.02685603526159656
7.2103362045012505,-0.16955954928188396
7.213114754098362,-0.2189055401960006
7.215893303695472,-0.24358238727090664
7.218671853292582,-0.062146013995974414
7.221450402889692,-0.08292151615431033
7.224228952486802,-0.007450133476174894
7.227007502083913,-0.013609817008656756
7.229786051681023,0.2524322828958945
7.232564601278133,0.23841983202412925
7.235343150875243,0.1926946114925434
7.238121700472354,-0.0649238059943874
7.240900250069465,0.2295117615746297
7.243678799666575,-0.04750720568402506
7.246457349263685,-0.08302161950067394
7.249235898860795,0.2167138724563907
7.252014448457905,0.0796639671275399
7.254792998055016,-0.20692407356179274
7.257571547652126,0.36772383505021194
7.260350097249236,-0.03204316855889766
7.263128646846347,0.18734453347751898
7.265907196443457,0.06582357425104203
7.268685746040568,-0.019242045171187584
7.271464295637678,0.15611095326266816
7.274242845234788,0.1287746563739408
7.277021394831898,-0.01793422594367123
7.2797999444290085,-0.08652986199991745
7.282578494026119,-0.015138686863093491
7.285357043623229,0.19878749334953058
7.288135593220339,-0.08578087727113153
7.29091414281745,-0.0471343820590655
7.29369269241456,-0.2651862213510194
7.296471242011671,-0.15614783113632755
7.299249791608781,0.17245646653755586
7.302028341205891,-0.30594639484753383
7.304806890803001,-0.2530109181673747
7.3075854404001115,0.07737303230516063
7.310363989997222,0.006105148182416767
7.313142539594332,0.17567279173501257
7.315921089191443,-0.007602263371217749
7.318699638788553,0.16228012090212726
7.321478188385663,0.13125662402178664
7.324256737982774,0.14846780600427711
7.327035287579884,-0.013643798356513581
7.329813837176994,0.4634536365889105
7.332592386774104,0.32771334231573834
7.3353709363712145,0.22980911909421567
7.338149485968325,0.2843555573605502
7.340928035565436,0.045460978896347426
7.343706585162546,0.16528165756090488
7.346485134759656,0.28390974997525237
7.3492636843567665,0.250078669972256
7.352042233953877,0.1759448269737376
7.354820783550987,0.38242527365441037
7.357599333148097,0.2266075871943423
7.360377882745207,0.27624006887977787
7.3631564323423175,0.4185528154055489
7.365934981939428,0.08801354604257103
7.368713531536539,0.26578736930410063
7.371492081133649,0.2208949521596132
7.374270630730759,0.16760737644059195
7.3770491803278695,0.06493590801643102
7.37982772992498,0.1032026927628042
7.38260627952209,0.06958523951610898
7.3853848291192,-0.10761968107302175
7.38816337871631,-0.06594749430760356
7.390941928313421,-0.06644680404354308
7.393720477910532,0.15813996360266244
7.396499027507642,0.1576789743923207
7.399277577104752,-0.07039959934569223
7.402056126701862,-0.024266749965528137
7.4048346762989725,0.3765942050933457
7.407613225896083,-0.19201804658062752
7.410391775493193,0.016389803821651963
7.413170325090303,-0.07290844043741246
7.415948874687413,0.07483351373631301
7.4187274242845245,0.09925520380589477
7.421505973881635,0.013201673358920914
7.424284523478745,-0.02009159929611635
7.427063073075855,-0.012555279850056708
7.429841622672965,-0.11801865064028699
7.4326201722700755,0.27415798169691064
7.435398721867186,0.010438235790142724
7.438177271464296,-0.0008487495978607213
7.440955821061406,0.031144026274086564
7.443734370658516,-0.0367473599024342
7.4465129202556275,-0.04733925093180034
7.449291469852738,-0.1397632748367623
7.452070019449848,0.11270878157976558
7.454848569046958,-0.11336323100420602
7.457627118644068,-0.03939511396682069
7.460405668241179,0.0015541450085810198
7.463184217838289,0.09509583076572437
7.465962767435399,-0.1473113048665032
7.468741317032509,-0.2038396058275165
7.47151986662962,-0.20513740733798264
7.4742984162267305,0.029465734084512883
7.477076965823841,-0.11862634034887469
7.479855515420951,0.13380322502662326
7.482634065018061,-0.10240441373390492
7.485412614615171,-0.1440391070742661
7.488191164212282,-0.3666894399670675
7.490969713809392,-0.0724697623483361
7.493748263406502,0.11821828749665514
7.496526813003613,-0.21966109349233573
7.499305362600723,0.055564558327465347
7.5020839121978335,0.056842434928935516
7.504862461794944,-0.0016323053203079277
7.507641011392054,0.05113671930651208
7.510419560989164,-0.00901017330226592
7.513198110586274,-0.1803322932429695
7.515976660183385,0.16581113937316022
7.518755209780495,0.09262718437532555
7.521533759377605,-0.056758118486990174
7.524312308974716,-0.06786480847946312
7.527090858571826,-0.027162107646819304
7.529869408168937,0.06965926657266899
7.532647957766047,-0.14796467089913798
7.535426507363157,-0.06052561817511668
7.538205056960267,0.24809939698114938
7.540983606557377,0.07316675211761668
7.543762156154488,-0.13372327732312184
7.546540705751598,0.2511995345381725
7.549319255348709,0.07321150554860828
7.552097804945819,-0.08853279136280705
7.554876354542929,0.04111926785375903
7.55765490414004,-0.16952742218995415
7.56043345373715,0.029599052438011513
7.56321200333426,0.08020239582509522
7.56599055293137,0.2619064311790727
7.5687691025284805,0.08047820874666932
7.571547652125591,0.17756671922037823
7.574326201722702,-0.208191859406393
7.577104751319812,-0.005137801695095945
7.579883300916922,0.15672109049805213
7.582661850514032,0.06458399026804931
7.585440400111143,-0.122580830622919
7.588218949708253,-0.017668987335097086
7.590997499305363,0.1494102999692483
7.593776048902473,-0.18209382719377626
7.5965545984995835,-0.1324068292876439
7.599333148096694,0.023335739832760122
7.602111697693805,0.060325425362723936
7.604890247290915,0.08100002524540267
7.607668796888025,0.23090222365922225
7.610447346485135,0.267229690794885
7.613225896082246,-0.05564920667659802
7.616004445679356,0.09967968567981576
7.618782995276466,-0.054370839420505995
7.621561544873576,-0.18979796644761332
7.6243400944706865,-0.08550936594170322
7.627118644067798,-0.3306016236414816
7.629897193664908,-0.13005779087445912
7.632675743262018,0.17034090458700643
7.635454292859128,-0.024585833477201575
7.6382328424562385,-0.28069569907282593
7.641011392053349,0.013791806717958342
7.643789941650459,-0.1301730185722659
7.646568491247569,0.06242502811538412
7.649347040844679,-0.04392972658139926
7.6521255904417895,-0.2339227790949088
7.654904140038901,-0.06698489552036478
7.657682689636011,-0.23167618024686293
7.660461239233121,0.1240297325250847
7.663239788830231,0.0751007344427973
7.6660183384273415,-0.14399358675068175
7.668796888024452,-0.17635134524649965
7.671575437621562,0.04922823773778511
7.674353987218672,-0.06524797808995221
7.677132536815782,0.2699284875226334
7.679911086412893,0.026678684706913532
7.682689636010004,0.28562769991241066
7.685468185607114,-0.03491928894092392
7.688246735204224,0.058293078720143256
7.691025284801334,-0.36016177334634386
7.6938038343984445,0.18330997718663455
7.696582383995555,-0.2030609489634654
7.699360933592665,-0.20657753158321002
7.702139483189775,0.10564178501680765
7.704918032786886,0.05148534432103151
7.7076965823839965,-0.007336237501645047
7.710475131981107,-0.007515689825726425
7.713253681578217,-0.0022516324428621935
7.716032231175327,0.12026404110238915
7.718810780772437,0.1953958397894674
7.7215893303695475,-0.033022493635180165
7.724367879966658,0.11764111279817445
7.727146429563768,0.02635133816977735
7.729924979160878,-0.08654609411643456
7.732703528757989,-0.023026223329864377
7.7354820783550995,0.13928161727470498
7.73826062795221,-0.11771285803903649
7.74103917754932,0.057166178570030333
7.74381772714643,0.011147201207923575
7.74659627674354,-0.09632928398400313
7.749374826340651,0.057806918925588306
7.752153375937761,0.02413041551302594
7.754931925534871,-0.12421160770401572
7.757710475131982,0.39343529031567775
7.760489024729092,-0.04321521376441613
7.7632675743262025,0.1459237275043819
7.766046123923313,-0.2402099829185642
7.768824673520423,-0.15631391271177605
7.771603223117533,0.029759716497859585
7.774381772714643,-0.15368494807311572
7.777160322311754,-0.08358089681904818
7.779938871908864,0.1891164073557984
7.782717421505975,-0.05620160340920223
7.785495971103085,0.044703561552634365
7.788274520700195,-0.17228034872002407
7.7910530702973055,0.02227699064112064
7.793831619894416,0.0013113122125982056
7.796610169491526,0.02629742404009325
7.799388719088636,0.15769398508299837
7.802167268685746,-0.12481873882189745
7.804945818282857,0.145208030730616
7.807724367879967,-0.05249415305472515
7.810502917477078,-0.20137602469650964
7.813281467074188,-0.12887415785726314
7.816060016671298,0.23682444402135203
7.818838566268409,-0.12095533397900637
7.821617115865519,0.033425977180705925
7.824395665462629,0.26252289618141855
7.827174215059739,0.3829913636249295
7.829952764656849,0.014800122225460219
7.83273131425396,-0.11220360411622506
7.835509863851071,0.027547642748287252
7.838288413448181,-0.0961852860260206
7.841066963045291,-0.16810254847796013
7.843845512642401,0.05400525960142433
7.846624062239512,0.037614549547417095
7.849402611836622,-0.37183200983542475
7.852181161433732,0.05702162197394363
7.854959711030842,-0.039998019857068176
7.857738260627952,0.06618967021997417
7.8605168102250635,0.026028490460747317
7.863295359822174,0.18668951998822272
7.866073909419284,-0.3726079895900483
7.868852459016394,-0.09810648071832638
7.871631008613504,-0.05158839719214316
7.874409558210615,0.12523916069164828
7.877188107807725,-0.16410470847064879
7.879966657404835,0.2659812798989295
7.882745207001945,0.12301754318934849
7.8855237565990555,0.4292074164900764
7.888302306196167,0.1381378804452005
7.891080855793277,-0.17565157653586133
7.893859405390387,-0.15543746978527212
7.896637954987497,0.11008753496967746
7.899416504584607,0.024175462130941232
7.902195054181718,-0.08719801128523497
7.904973603778828,-0.06869923162954228
7.907752153375938,-0.013461705313559582
7.910530702973048,0.08248653516555564
7.913309252570159,0.10481117449967019
7.91608780216727,-0.011153965130075211
7.91886635176438,0.09883062402009676
7.92164490136149,0.17531387317535377
7.9244234509586,0.24699346958487586
7.9272020005557104,0.06461793618605186
7.929980550152821,-0.148020309878093
7.932759099749931,-0.06348814071939753
7.935537649347041,-0.19151687964070477
7.938316198944152,-0.1927276876124978
7.941094748541262,-0.02459319631808941
7.943873298138373,-0.1307423683645117
7.946651847735483,-0.2672221377305189
7.949430397332593,-0.03221705915077006
7.952208946929703,0.019009914059221186
7.9549874965268135,-0.003140369761507852
7.957766046123924,0.06862060811747858
7.960544595721034,-0.013727041003042714
7.963323145318144,0.1767222742508337
7.966101694915255,0.1425728027826361
7.968880244512365,0.4224480544388884
7.971658794109476,0.7424096593213269
7.974437343706586,1.0694721229284796
7.977215893303696,1.0921191962784282
7.979994442900806,1.1695360174084712
7.9827729924979165,1.056125443218187
7.985551542095027,0.5055167747127542
7.988330091692137,0.32664777693265223
7.991108641289248,0.09811428195572497
7.993887190886358,0.07610719470047883
7.9966657404834685,0.01209165018080631
7.999444290080579,-0.08968028595951104
8.002222839677689,0.05061147205285152
8.005001389274799,0.034340515212365474
8.00777993887191,-0.10781660852152597
8.01055848846902,-0.09477896199379217
8.01333703806613,0.021674852647600266
8.01611558766324,0.01655796199050445
8.01889413726035,0.10376061786622852
8.02167268685746,-0.14190091855370865
8.02445123645457,0.023799510001775947
8.02722978605168,0.21042209674740012
8.030008335648793,-0.29172415043924016
8.032786885245903,-0.13670895609334324
8.035565434843013,-0.11142239528960494
8.038343984440123,0.014902011580165034
8.041122534037234,-0.027498735541373928
8.043901083634344,0.026529846955590315
8.046679633231454,-0.06460294278726161
8.049458182828564,0.20958857238578463
8.052236732425675,-0.020465906294604385
8.055015282022785,0.02583528449154521
8.057793831619895,0.018452205344872734
8.060572381217005,0.25170518058022523
8.063350930814115,0.2619656747548912
8.066129480411226,-0.33843505038415395
8.068908030008336,-0.07926361070564131
8.071686579605446,0.029520778770403776
8.074465129202556,-0.2140193422415798
8.077243678799666,0.09373593918328295
8.080022228396777,0.0749943733289093
8.082800777993889,-0.027215935265421518
8.085579327590999,0.13897765940127085
8.088357877188109,-0.1840538534293779
8.09113642678522,-0.31874205474302897
8.09391497638233,0.3034786898528996
8.09669352597944,0.18520394690414857
8.09947207557655,-0.09231905187564111
8.10225062517366,-0.00814503360687052
8.10502917477077,-0.08179084498437082
8.10780772436788,-0.12081047796255519
8.11058627396499,0.14557304128360232
8.113364823562101,0.048500111569906044
8.116143373159211,0.10727767223893772
8.118921922756321,-0.28049421006316727
8.121700472353432,-0.3059939078662108
8.124479021950542,-0.03634611230367671
8.127257571547652,0.055379178931044167
8.130036121144762,-0.05465728046853191
8.132814670741872,-0.07758040741675011
8.135593220338984,0.23657335072041458
8.138371769936095,0.39534634226695725
8.141150319533205,-0.1277259207247844
8.143928869130315,-0.14473324658797346
8.146707418727425,-0.1956491849532868
8.149485968324536,-0.0055170914017682905
8.152264517921646,-0.0480475141896276
8.155043067518756,-0.045160117528830576
8.157821617115866,-0.08392426256383624
8.160600166712976,0.06774116811817944
8.163378716310087,0.25065994513120116
8.166157265907197,-0.3584146376239286
8.168935815504307,0.04415056017271776
8.171714365101417,-0.28410807594076976
8.174492914698527,0.24249240602428024
8.177271464295638,0.12340502811336013
8.180050013892748,-0.1577348320628524
8.182828563489858,-0.05123122713441182
8.18560711308697,0.005107905525554929
8.18838566268408,0.31507865131981644
8.19116421228119,-0.024731042479770773
8.1939427618783,-0.041918844538413075
8.196721311475411,-0.16102755681660702
8.199499861072521,0.09977861001673731
8.202278410669631,0.05672377530986247
8.205056960266742,0.14963858494506135
8.207835509863852,0.15723614010224
8.210614059460962,0.07648855623160201
8.213392609058072,-0.05425625883091387
8.216171158655182,0.25809429237222953
8.218949708252293,-0.036686112662796866
8.221728257849403,0.36043309443311944
8.224506807446513,0.32285222404566355
8.227285357043623,0.24132823875579526
8.230063906640734,0.2519381213762287
8.232842456237844,0.22261537927179903
8.235621005834954,0.13128351060719645
8.238399555432066,0.3507095024795323
8.241178105029176,0.21097527621171042
8.243956654626286,0.2880668174362438
8.246735204223397,-0.029226250536312615
8.249513753820507,0.17171189699343078
8.252292303417617,0.2015263798390882
8.255070853014727,0.30759132728579536
8.257849402611837,0.09866162370341687
8.260627952208948,0.2168967176669686
8.263406501806058,0.24801709559226856
8.266185051403168,0.06930041800788594
8.268963601000278,-0.11302630093719693
8.271742150597388,-0.1171677522140756
8.274520700194499,0.03919469193921883
8.277299249791609,-0.15507972962633793
8.28007779938872,0.03331477680626098
8.28285634898583,-0.22896330267278645
8.28563489858294,0.15980074067881303
8.28841344818005,0.05186653739386709
8.291191997777162,0.26302679967891657
8.293970547374272,0.260979539941856
8.296749096971382,0.09887878662978643
8.299527646568492,-0.07697430132789547
8.302306196165603,-0.153274946401316
8.305084745762713,0.05864289768791498
8.307863295359823,0.007205825027563224
8.310641844956933,0.1307665628761665
8.313420394554043,-0.010248863381074199
8.316198944151154,-0.019072231209966598
8.318977493748264,0.018028896634396767
8.321756043345374,-0.37629022622749303
8.324534592942484,0.14129859518742002
8.327313142539595,0.04756506831494548
8.330091692136705,0.10277379467048975
8.332870241733815,-0.021602438022593623
8.335648791330925,-0.22556841215165155
8.338427340928035,-0.2708454511156344
8.341205890525147,-0.25621700271555803
8.343984440122258,0.11689812012458195
8.346762989719368,0.14614681178112285
8.349541539316478,0.25300231481358726
8.352320088913588,-0.13906643954719564
8.355098638510698,0.0843541713215592
8.357877188107809,-0.1030507358975492
8.360655737704919,0.1550381577612461
8.363434287302029,-0.004147532902401507
8.36621283689914,0.3355786272542945
8.36899138649625,-0.05045718328234539
8.37176993609336,-0.014379454525911517
8.37454848569047,-0.11334347720548633
8.37732703528758,0.10995883520739423
8.38010558488469,0.12031415339143614
8.3828841344818,0.22798232731773618
8.38566268407891,-0.026878787590010358
8.388441233676021,0.05189843073439439
8.391219783273131,-0.04242614285820418
8.393998332870243,-0.03686137267403302
8.396776882467353,0.15458715238253895
8.399555432064464,-0.19460805505697737
8.402333981661574,0.35735138175777803
8.405112531258684,0.029953474891529972
8.407891080855794,0.25120308703955596
8.410669630452904,-0.11812212991551782
8.413448180050015,0.0625014861007522
8.416226729647125,0.12225060611865925
8.419005279244235,0.1552214886059343
8.421783828841345,-0.17007990244890128
8.424562378438456,0.13770834123751458
8.427340928035566,0.12275658018190838
8.430119477632676,-0.1303120772145081
8.432898027229786,0.016286416071840712
8.435676576826896,-0.03509844414124848
8.438455126424007,-0.13910365574314904
8.441233676021117,-0.16730789980925223
8.444012225618227,0.23980510267495872
8.446790775215339,-0.11825489762391023
8.44956932481245,-0.030080534654641715
8.45234787440956,0.22075538179571474
8.45512642400667,0.2956089811378063
8.45790497360378,-0.10449538897310576
8.46068352320089,0.0028542918139858107
8.463462072798,-0.11530767856580632
8.46624062239511,0.29426449894658413
8.46901917199222,0.194544460200909
8.471797721589331,0.04615213051923426
8.474576271186441,0.07447268573799262
8.477354820783551,-0.23038441318407615
8.480133370380662,-0.05910447112196362
8.482911919977772,0.28818019818171875
8.485690469574882,0.18478391415073706
8.488469019171992,-0.2986509883927486
8.491247568769102,-0.008323592469707966
8.494026118366213,0.3876188599837135
8.496804667963325,0.10737621008235027
8.499583217560435,0.08194964989876065
8.502361767157545,-0.16299246964227615
8.505140316754655,0.15331230083151454
8.507918866351766,0.1494087708393231
8.510697415948876,-0.07838441500191638
8.513475965545986,-0.22515691716736003
8.516254515143096,-0.27486934270346186
8.519033064740206,0.12697707943972492
8.521811614337317,-0.20362450300456778
8.524590163934427,0.23718153432968472
8.527368713531537,-0.15155504460629596
8.530147263128647,0.04049284206954779
8.532925812725757,0.17999888391022775
8.535704362322868,0.00372917880312293
8.538482911919978,0.08029860372265417
8.541261461517088,0.07073512381304041
8.544040011114198,0.032414000648250625
8.546818560711309,0.05769934457016147
8.54959711030842,0.0586167942512813
8.55237565990553,0.14397043610422858
8.555154209502641,-0.12566640592635092
8.557932759099751,0.16619135071497948
8.560711308696861,0.18571042459447434
8.563489858293972,-0.06412686549847736
8.566268407891082,-0.004515299994037144
8.569046957488192,0.09879846926431926
8.571825507085302,-0.17070634819038089
8.574604056682412,-0.2799365095939893
8.577382606279523,0.09099249715680868
8.580161155876633,0.09285172925357348
8.582939705473743,-0.0475346574258393
8.585718255070853,-0.14549462671749352
8.588496804667964,0.11637234410611486
8.591275354265074,0.25708433357639504
8.594053903862184,0.2407473775161113
8.596832453459294,0.11287975315038559
8.599611003056404,0.107779778007405
8.602389552653516,0.008670232152913071
8.605168102250627,0.011302113416308223
8.607946651847737,-0.01770250536898837
8.610725201444847,0.08737152069410346
8.613503751041957,-0.06370112264421428
8.616282300639067,0.22851830927371106
