amplitude
1.2789612874945626
0.9825621739443456
0.7665883825425741
0.5957001581866946
0.5285500742484744
0.12936586900639302
-0.09373584429892133
0.26985456054073903
0.17116750783104243
-0.06650184936308808
-0.0302843822989926
-0.02848219097757051
0.0618840373816195
-0.27120717985191667
0.053908180118584274
0.02619479110689312
0.030710170431189773
-0.07834842021842664
-0.19050806564697975
-0.06743018087974177
0.016975096296510575
0.15756164156392483
-0.16798422534703755
-0.15402043500606225
-0.124747142148553
-0.2371015550061667
-0.043195908912229734
-0.052197183614242144
0.02798787220152422
0.0038649750959851097
-0.32902540934409874
0.08561292148392945
0.26625406472765784
-0.0811802887039829
0.04424869735351739
-0.009608746336172992
0.02149336855047175
-0.1932906696209065
-0.07886178075995409
-0.007821552625642878
0.027502793642987397
-0.07257091604709155
0.12467437134477484
-0.06681785165526133
0.27337575300317246
0.05028456138116513
0.0394885679786385
-0.10433561506143489
0.022074197796248397
-0.0658563946101064
0.2895146165954861
-0.08268939640887923
0.11267167075008094
0.016476410697833833
0.054176882685674145
0.09035292631720077
-0.0239034934569034
0.2903065722823164
0.009291656868105853
0.10987295176819442
-0.3923688881012423
-0.08487790694227818
0.22454872904905376
0.07791486474418444
0.05689913003488025
-0.18656783239278368
-0.24178527636883415
0.0651504376072478
-0.19597260804115946
0.10061648528694804
0.21143275512741622
0.033105196219169394
-0.20698173925046423
0.04821223627592337
0.09185202348228796
0.05631157035510079
0.1976869574941435
0.1494752626534515
0.1939318419358142
-0.23179390677586065
0.1432569695689727
-0.1483254270694202
0.06890910767631313
0.30783198816781443
0.29915662122382547
0.12127934622219826
0.37988362491547234
0.17527515886851083
0.2499952745694991
0.18469739943626406
0.23430073742939173
0.29787302261655324
0.3546707004566943
0.3863214176484785
0.15506514944193622
0.5493351784394372
0.2701650016924689
-0.023336015160512924
-0.06882634232137272
0.12020543351484057
-0.06864498023388328
-0.1825554600340204
0.008407699437822602
-0.0954440036357255
0.1265931819528901
-0.09250048102387327
0.20544889133144892
0.3181423990412637
-0.12634152041413946
0.20130671698461758
0.01114829404915998
-0.13856579835925226
0.04784799591072229
-0.3244092984061947
0.04265739105268368
0.027198096625329068
0.14047907547505392
0.12176646814506098
0.08705096746166308
0.0425999458430273
-0.20704782940471175
0.14571796909387758
0.009697529591866448
0.08971574987452756
0.011945409628402305
0.00390649398826381
-0.0768705188050147
0.24397312986804925
-0.20733832493144255
0.1471442990056934
0.2515219258963804
-0.06783140991697156
-0.20480422095460926
-0.045422508044182255
0.23416439230381125
-0.031585910639377074
0.07751465500535727
0.2381254400353397
-0.006714090792787078
0.05904301825882163
-0.020397080489370476
0.34487696930991546
-0.16528605806233362
0.10906803202620405
-0.030209275183559613
0.07628561043047542
0.14578336935921848
0.047074475434330285
-0.3284987262179627
-0.08152346400134707
0.15707301178217523
-0.030493745294264872
-0.17454873822165887
0.2202221232187518
-0.05184205251115474
-0.1410603182130112
0.10200338296151032
-0.22516739730771665
0.08657461863842585
0.04725016352022228
0.13024816198585826
0.006236410061299331
0.14987754094674455
-0.1308148602291114
-0.024561036712782532
-0.012816813593966317
0.21574518750528296
-0.08593744165091498
0.11475080468925418
0.28489641750159816
-0.21410038364326406
0.1572983068166888
-0.3655135147069953
0.01047669108926884
-0.11495301740399602
0.3278601055486006
0.04302181223743317
0.1595470507188177
-0.11255882290935759
0.09562366999376574
0.0026787902535270196
0.09504629214969436
0.027347558453793698
0.05954074813552734
0.1308945373310603
-0.012798273460818415
-0.07406663139146902
0.0009652675535706947
0.10291881837747788
0.09164235849859724
-0.005778228079489276
-0.1924955630726515
-0.0871815766152537
0.04664963291162053
0.025997581114359722
0.11429088972609075
-0.18401798069731692
-0.12083128157281511
0.15033931168126932
0.32223970810666897
0.22660304707121273
-0.27954194861396975
-0.1437031161224304
-0.05069907559090868
0.017409332311545275
-0.21815133434507372
0.01476696996888791
-0.011507556570350843
-0.06606984254703005
0.048657821017495335
0.051926221624678186
0.03538022135260567
0.24003506986969614
-0.36026626923850935
0.13263290917026108
0.09006795549386044
-0.1662238299965303
-0.0018004584059508842
0.02844476392748817
0.16377949300575706
-0.07803613776745046
0.08726470083859099
-0.0014791746105557524
0.04158325149785752
-0.05926930575744257
-0.07438713166348299
-0.06682036621588268
-0.032081569921112725
-0.20819453730481016
0.048769980519167866
0.06852439548386136
-0.21717518436073058
0.012937643184623954
0.1742847833248268
0.5348388401383855
0.6331304019656648
0.8859908741330932
1.1901828468428075
1.338551486086791
1.090300535428347
0.8687718206727015
0.6965786831672571
0.5383388459881411
0.3107004924907252
0.09959548325004698
0.07415611164462937
-0.12253636481601247
0.08509413303417472
0.12638304785726798
-0.02554317990826767
-0.3059733561927576
0.4137948246169307
-0.28691031789690924
-0.14161592121382804
0.06498190428448836
-0.014194416835105122
-0.023251382845352803
0.10202510122430011
0.19123949109265195
-0.06820236065772603
-0.14861288968662092
0.18322048731259752
0.12219476262622275
-0.005326649173768024
-0.033981811127280145
-0.011721332507806177
-0.12464254125046746
0.18025581613195535
0.2068265306106959
0.05780117182486924
-0.02038555924629643
-0.006692374028778171
-0.05903628304036438
0.03441501821574411
0.13991290044554971
-0.010205423298134949
-0.09400562690790376
-0.15705192020101755
-0.1429670094197508
-0.4074133324367383
-0.24795853752441474
-0.028248480593570283
0.046464190001622135
-0.037913618081374015
0.04388076343296691
-0.04172854250954168
0.04909612293729347
-0.03483433955981344
0.0865208687358027
0.0020127276745409836
0.21938800822661056
-0.1977998210877036
-0.09470261703834282
0.01756919626944643
-0.22336837205878643
0.09937029359517283
0.2373093898989968
-0.23829609250510875
-0.07722742566561637
0.08674693668355929
0.10527820766111194
-0.012852076531564718
-0.042645815067100225
0.3308136639925417
-0.03120321853389279
-0.0840142816032152
0.24853665019585713
-0.030561157256864015
0.10229918931785442
-0.002852619534355033
0.15304421674928165
-0.09016138806052981
-0.11593076695031161
-0.2431770792432685
0.14241534505219666
0.16022878708132499
0.005670973101351756
-0.2832990489642827
-0.019422168532443385
0.24575866982836075
0.1568683661187985
0.23475960838681076
0.004920079919368325
0.0849233828833647
-0.04050291888606197
0.16873947094263986
0.29183709561474097
-0.008195535780036983
0.5988205161853146
0.5539971898119922
0.21799282245494347
0.10248669842977878
0.362179022775887
-0.0384718259609238
0.053612422079461264
0.22687440966474628
0.33368149573140526
0.08879687797091451
0.4073117120796831
-0.04737513292771989
0.17966664842698618
-0.1470433653787709
0.24751537015578468
0.016692342000175404
0.03265873175575466
0.01730778679721901
-0.200824021545919
-0.32815458468484626
0.002619443354066709
-0.302453414646034
0.04934061738167856
0.200665961032132
0.0447438967174468
0.04204668953845504
0.17921424632600003
0.1082357259106442
0.16149592231902457
-0.1461903447241408
-0.19926856720724292
0.4178797536137998
-0.07895532432224248
-0.14805417547319624
-0.03655227267471185
-0.2008854405090331
0.12402188874977514
-0.044114536552237106
0.07139908871535781
0.17347517445401212
-0.26539852636395267
0.01044001697566923
-0.08974377970460556
0.06456704116285807
0.1313865158449656
0.21928812527404076
0.11037943733511264
0.1358346931441139
0.15108233833551787
-0.12062338896364384
0.13693324375162044
0.1727529562637021
0.22143673784446924
0.13476729361885734
-0.0311958781572129
-0.07632362063131037
-0.04624945412279384
-0.15490548350976727
-0.25927506127338673
-0.09490396545659346
0.07656134293147107
-0.19130335841662718
0.09491256851566073
-0.007848598459630814
-0.008517328474801548
-0.13644424568495228
-0.08630738343854966
0.13482514301038384
-0.022268277001641912
0.05604953701939105
0.05538506247066773
0.2172181289934459
0.16176073804135546
0.01194455986749417
0.07201767841874586
-0.06338515520727091
-0.04386701159616898
0.15706852753118297
-0.14375431521172377
0.1416619589386264
0.0074291870503037805
-0.004332787961897379
-0.08881516340301045
-0.1295922726485219
0.12253329102570944
0.18870026223868855
-0.08434366669283039
-0.15859688670811403
-0.09902948130489882
0.25139480982366685
-0.18113393441888292
0.19467890061308374
0.09458494808961455
-0.4914937569334864
0.029598711536858436
-0.14693912677023227
0.22413336757898122
0.07004463245397058
-0.09368207119841648
-0.0541384904441528
0.14760359240320425
0.22020168255589614
0.39452120322122475
0.9891853148042851
1.0282491627494936
1.010602982807538
1.3524467361954318
0.8447430422942152
0.7572204471953
0.6386149676521776
0.03043748222240572
-0.06752867354807776
0.22829767425694192
-0.12271111682012655
0.21093157747218783
-0.21805906145418705
-0.03882294918007987
-0.12198858107845503
-0.07926380391529801
0.10413032682453523
-0.2005995211044221
0.024718653632991253
0.3165105716740128
0.0969457778086806
0.15847811679480941
0.03210610618257608
0.08210696270511568
-0.15204369366713266
0.06514785394712094
0.03497525034834134
0.08385685546588408
-0.00873151236878652
-0.26805310061866955
0.04521250230042824
0.3358647389071836
-0.38896909140248787
-0.11743333645216802
0.12925880128986553
0.1338401965245924
-0.06927922304095864
0.0899795914732881
-0.18383162705214032
0.07855896259997316
-0.04971376320634606
0.18446876294121492
0.20148531989429208
0.13686575658449834
-0.16191208593292297
0.17604167782657054
-0.19903120930982846
0.17306941735486842
-0.010024577430425343
-0.01994244975688193
-0.005633252262930979
0.12912435634259972
0.05768573650932685
0.28365672658556856
-0.20458153872890567
0.15667427781208593
0.29295046873038694
-0.18531918757078183
-0.17614098119956662
-0.028879982533261763
0.06688760389670818
0.10258786905876172
-0.09976259007090264
-0.1602714242621683
0.025797108527388795
0.024177884010098297
-0.05989468245872092
0.11886963812549586
-0.09207082395238476
-0.022131524658703536
-0.13661522089045072
-0.14305149368336612
0.08341500873642049
-0.18736860630060645
-0.13913309443082494
-0.02882220822558685
0.019079009208844207
-0.1563833281035073
0.4413516014154809
0.2125886781126572
-0.15422642504758682
0.23518432236600068
0.14859804818308128
0.2091476528033719
0.12729265077190233
0.17760717551541236
0.490396790139158
0.11566626561292136
0.29885693686326353
0.3074954043772051
0.09545065525277849
0.22663875630330127
0.47345889872205527
0.2705013937913909
0.22935030420810684
0.29919744052919406
0.20845746577906837
0.35680861819269927
0.2000191738479605
0.11348947562548828
0.36656773723965475
-0.032806823849792444
-0.25952810665488757
0.05193772708098036
0.008087551232903473
0.2585454295789585
-0.21490483747200786
-0.2631741144804603
-0.321277543946315
-0.09187517514573998
-0.00612929844884905
-0.03869213826352708
0.22231705686746478
-0.03237137107150806
0.2075900491429313
-0.05142565725626365
0.09664665855150459
0.14787680731333508
-0.2415981068616299
0.1844648994142094
0.0775164665908113
-0.03875559649358409
-0.16535582432789098
0.36342523313016056
-0.05528721488391126
0.18133179941039881
0.1373583834669929
0.11710482877037695
0.11974376562364912
0.16715704482030802
-0.0431642584535874
-0.15951691139944815
-0.08808043818281738
-0.08974666714444296
-0.28583401710263817
-0.016080311760045984
-0.16773909980790694
-0.013308231845439961
0.13312420546146625
-0.05799404277954334
0.058316748462190184
-0.260420983149994
-0.05569912959317461
0.20455498727504515
0.03402219842856612
0.07994536251535408
0.27138634193894795
-6.66455950523788e-05
-0.19583990397820647
-0.07895629545103772
-0.00955721237252053
-0.08504587929088125
0.16430976399071046
-0.12025252987886226
0.015785652333316646
-0.17821715471943078
0.02081299448423991
0.024143170266721817
-0.18901754918869365
0.034300324363077506
0.034832270363222353
-0.2646021699777399
0.11959654560614273
-0.10119779967669548
0.021224320500546914
-0.23165223782001315
-0.04945814665448981
0.035764886956185266
0.031193650488335927
-0.11861487510443881
0.11844347968323823
-0.026645392374138967
-0.1973175405589854
-0.14081858242153422
-0.14477297642442694
0.04024873251399914
0.008814569411196455
-0.06694981523206445
-0.11907884724337173
-0.11449660921610132
0.03518304377139011
-0.07645260463229626
-0.14016520234915592
-0.1293956846532666
0.1201967399936444
-0.00010836889627183755
0.15130965655836814
0.11707062205303434
0.19484189860736004
0.15508850051387424
0.11435470270691403
0.043293980277392265
-0.09435656267482662
-0.1935533601032096
0.18165483815138497
-0.10740138829065647
0.051491396964735744
-0.0658775618561042
0.06831856208891798
-0.1244232744490473
-0.11601242893828792
0.007823477151228326
-0.019204883939914194
0.019248229053235786
0.07458511018087359
0.04991395623482447
-0.09889795277367318
0.03175485546846327
0.07265873879881206
-0.10820666659061966
0.08226828284438512
-0.14573608978440625
-0.2322608210653362
-0.09397661641570844
-0.07889428230004247
-0.09313704059224782
-0.10301436514966693
0.1876300940611273
-0.15851415811194836
-0.2408737329608163
0.13735786946665257
-0.037235062444056555
0.12215871791607988
0.04370886539308454
-0.0176935332538461
-0.42288759735113596
-0.214794765320097
-0.15636656612680208
-0.1087695203734579
-0.06254184655067853
-0.00672740842384987
-0.09651628652312506
0.1870529322298916
0.035027759947275465
-0.1726692409984344
0.11720200178615452
-0.4968549755213449
-0.12088822562568051
-0.0003239416057244074
0.0736815689250363
-0.05151921676471156
0.2835784060951043
-0.04807514288656232
0.15766792725834627
-0.0452111708368614
0.12071652285641077
-0.025630925671532117
0.2974761970687854
0.06155991161083646
-0.08222118002131933
-0.015865689379401325
0.2552512799290229
0.268928656863754
-0.2254169808370903
-0.029515580633621617
-0.199121156230781
0.2623697739996098
0.17993802087368982
0.23266120251337302
-0.2302010404731618
0.23983933592477472
0.22639277647100448
-0.10740160807263609
0.09759415478055217
0.08253918613686484
0.18154845872829592
0.10082407288231851
-0.0006154855216609148
0.0573141244384103
0.12601654610353566
0.2593629235211428
-0.2119591469950071
0.014234178887315837
-0.28222641493651596
-0.1462219742477442
-0.003780419173624594
0.3646070258941779
0.8056657521764469
0.5824565660888141
0.9408409158776155
1.2668499953693193
1.2664472446483177
0.968143724087873
0.9411135802327738
0.5609184680775092
0.24359545126666193
0.2477332529208556
0.06000923280965774
0.08486412654428792
0.04300937348447486
-0.12964678960425044
-0.05817685016914632
0.1530566176489135
-0.2041111122970293
-0.07044085526150835
0.05096413875555297
0.035830474833891936
-0.10301090725393311
-0.15760843653854906
0.2078762358157738
0.007899785062818786
-0.2637908495233172
0.13957818950399095
0.17826985505042398
0.11403499647796482
-0.067699780816787
0.10544900263028915
0.07521463340214417
0.19643911441749368
-0.06363148229832405
-0.13607124766510573
0.2189728812468298
0.2982056638599926
-0.02544834460391435
0.02586191671406039
-0.07516115583727405
0.20493828602427097
0.05116822903242573
0.06424516525198468
-0.0522436538409187
-0.3891647843470909
-0.09143966147124442
-0.12024247844825897
-0.1250746617505034
-0.013523472441237685
-0.015277004479534955
0.10192221615428528
0.07845747252049547
0.15110766151894234
0.19063629750566718
0.00220195977596232
-0.06791349994232308
-0.13698099850985349
-0.00751046824130191
0.40897316564309405
0.1241549627256113
-0.1091702728628387
0.08399013098013552
0.060316031083542304
-0.12465472954304359
0.1506995246424177
-0.07949099049928851
0.04674031459865558
0.0789886589612362
-0.017464868539695942
0.08050659926097907
0.0870874871540165
-0.10140749557469361
0.14268229116220799
0.034648622937256346
0.04856849736283815
0.28703172320306203
-0.10428693833282465
-0.09777143893332671
-0.11656006627879839
0.07277889227310586
-0.06093853809495059
0.19462680744200986
0.21461156353619182
0.10423839630919611
-0.1133383269624933
0.24288409382420112
0.016192372928074003
0.18762717361524522
0.06655267000261715
0.46103382007273863
0.42036759097691523
0.41519646617259975
0.00927878875782348
0.12176991980314789
0.46041866783314245
0.38696554978373854
0.291368319085642
0.0927583115800972
0.022657720435589668
0.2581729792461048
0.1646185348360544
0.09957883227448776
0.08968275318188727
0.13952451531535387
0.17802352730200904
0.15140430026123128
0.26167926966396104
-0.16182498006980028
0.2508557373042173
0.011395136347706995
0.0018858621926223576
0.1225171427833239
0.1787424203097741
-0.00374055259141573
-0.1399245361226572
-0.31502368725201113
-0.12064442355167002
-0.06390484765165313
0.05649072349175792
0.05517221853526335
0.18862430057242616
0.10273922955746631
0.231857616524824
0.10192342973384257
-0.06615105382013275
-0.033105991178649
-0.19230658233571357
-0.19158387160263676
-0.02735932726439187
-0.04425623782033963
0.0504138541331327
0.1664084147876071
0.11409998847880895
0.3655993020605759
-0.1973046912715518
0.24444081439842302
-0.10277865234675529
0.05719049540324194
-0.15602327299012503
-0.1699664958561462
-0.0183021856063322
-0.12118319558950881
0.09968430916319598
0.06667545856358915
0.10304033279064839
0.17078641658754132
0.1314730327833008
-0.1906594139501332
-0.13195322878008497
0.16522497711690698
-0.017794601889111927
0.11572171501968541
0.09151192193931822
0.19726496445543984
0.04503466317603636
-0.06078308355204087
0.05926593147102279
-0.18739639914709494
0.012540370701043248
0.08502343899598072
-0.03304771207322691
-0.18071815623776782
-0.05863674838563431
-0.12616376579369895
-0.05880785853372651
-0.10722421532559817
-0.06629730624608472
0.2251387917710929
0.32688758362663534
-0.34738116329508345
-0.14728603287538636
-0.1828828074030698
0.07161528121782564
-0.09120425934034448
-0.05692379323202478
0.09911794183824063
-0.20772101231251225
0.08417591357084521
-0.12035011163561671
0.019020138343479185
-0.17488914157295185
-0.125715086042057
0.1277379074269884
-0.07359545399291921
0.2254693284370758
0.03965752171180902
0.1439857007592427
0.5165047689636935
0.46405104951616494
1.268503507137949
1.0178235494714833
1.1250580800425118
0.9107492821218253
0.677453604001697
0.18038421934806836
0.31151938943263074
0.1902453652661041
0.049884490479527865
-0.12096233265605881
-0.24974074551026998
0.10395970919471102
-0.09480820637548655
-0.050075293667698945
-0.031024359619793634
0.01755042358814871
-0.2888060404117752
0.15995517271843918
0.06866347174101585
-0.06479777466383868
0.1628367015129873
-0.0981640123572571
-0.09890464654755268
-0.09102371325953186
-0.03068382889914863
0.03905113413282005
0.13117947927659196
0.051141312379447364
-0.05833113694545855
0.07785459892390244
-0.17285706713582558
-0.018920879878390497
0.033673861339462506
-0.016270699050871515
0.2679826170352296
0.2683188793764143
-0.058651856413457236
0.1482561444140569
0.008773153879262908
-0.07558003521598845
-0.24273218670038743
0.16368474085005966
-0.19690657357818883
-0.06382642723100485
-0.0037963020681895747
0.12248696523610096
-0.019827307311560998
-0.038973221367261696
-0.015868609612472342
-0.26005712110237567
-0.06568343543168806
0.1154617049930702
0.15477164928367718
0.10031509435097709
-0.0019615492822801094
-0.011861313203002809
-0.19343596604107752
0.06782127247348814
0.11132062386634997
0.2733591107287098
0.11079247088803233
-0.15080949604156882
0.09451244121202451
-0.11512640048340593
-0.3285744509972788
-0.37164703060931165
0.11913563396329914
0.17674873976742564
-0.21010278093434845
-0.10547628376881141
-0.04405825554551395
-0.092412214466185
0.09208410754882455
0.2428987099675417
0.10231828356571364
0.043124099385780344
0.04726949995978866
0.06287477742025864
-0.12886305146249155
-0.2219928782941219
0.3434790940251362
-0.07237485521489162
0.3149698900275065
0.127220873897102
0.38077899870252946
0.31055402831309425
0.2789820610352316
0.4212908027390909
0.3891350236883325
0.30221397811067646
0.1675699737173527
0.4559302338299545
0.4810299218159758
0.6802860996845669
-0.06426915584488524
0.37976115701994884
0.02180372265696784
0.38139018755447246
-0.1531985395834611
0.19024528231396787
0.27653135457668204
-0.018321823983970337
-0.03275803843482111
0.15419562176179236
0.014532220713345492
-0.09865291621029544
-0.06017398132833969
-0.12572062473402673
0.2503008108066769
0.09027576832528161
-0.09191096059538725
0.2079308347151401
0.21677529083078112
0.06548381244870047
0.2636794564602334
-0.02984123957186161
0.028723567056112155
-0.07465537454496211
0.04941333503395383
-0.04380647543915689
0.040755389785934126
0.15153884099651008
-0.04601135656833226
0.012148278498196564
-0.17050359596042441
-0.015651069087588218
0.2427580143637296
0.2012141117884077
0.1582751390405366
0.003949835309425873
0.20981225356470812
0.19718330202826492
-0.11760952195503865
-0.056717851562360685
-0.41600572178384915
-0.003374277525121813
-0.11957817836410094
0.10980288276956048
0.012488059105725507
-0.1980059176131495
0.14113397766431612
-0.24558773231118608
-0.11053194519462947
-0.032098698424052025
-0.11255565617169605
0.013605887829366009
0.0805954573746129
0.25167235639187147
0.15772568140112153
-0.13927648985006083
0.010050164380437118
0.44447215145758917
0.07630718501598201
-0.283219733398538
0.11554571453991137
-0.03209529506173612
-0.17690920776443841
-0.0420964480857117
0.09654562407646414
-0.047308851403141255
0.06240841116200965
-0.4008039422552029
0.1382733742096273
0.10495179268813472
-0.17226143483559575
-0.15717564252529306
-0.18853380253004043
-0.38443330727629266
0.06114965306835681
0.014788851783269415
-0.23468035746031468
0.055629847083473634
-0.006374263836361828
0.11890843127711222
0.12274062599115354
-0.11905213511260457
-0.02957917488696114
0.1703545292492294
-0.059755155410965814
-0.03864960219872221
-0.07666564740653431
-0.20335727863976272
0.43090568610537333
-0.12732027121763112
-0.22533270262503752
-0.0674221579530376
-0.12524958289369317
-0.039058558908412463
-0.06999979810531906
-0.07093176884844564
-0.39235477766622634
0.06610837522908171
-0.09129394058491071
0.20786362364558014
-0.04509817699807882
0.018927964530067592
-0.10967007988316348
-0.03841583284432014
0.15851188234943023
0.11097584323257423
0.08104433151963805
0.007102653492529697
0.0694010868842743
-0.13442909607362719
-0.03356984207250745
0.16580435636165672
0.10795982495983547
0.05961540404994549
-0.04678727617238706
-0.06727477488625769
-0.19426307963825254
-0.08500948355389094
-0.21532946657737442
-0.14016993607319264
-0.20762086489064321
-0.07786035559341208
0.18318881349397434
-0.32378210297916793
0.10412181500674823
-0.009130665736623965
-0.15106256957299816
0.22022085514527662
0.08773170649528295
0.0358072755621424
0.0036027234422787912
-0.12148053058066467
-0.3439801790212859
-0.00785574730266096
-0.05355016094023565
-0.06654473353135838
-0.27098854021626195
-0.328077649988929
-0.3691355232461283
0.05743825060159061
-0.1896893299749229
-0.29401411119946064
-0.14273362346171067
-0.22893782640131005
0.03361077060977268
0.3387399586970625
-0.2535407185594066
0.07565928981062242
0.15351585991009628
-0.1134345046588363
-0.2296103844289198
0.043112590471075914
0.0808312670475723
0.14248994490642475
0.24520026066961664
0.08248963675897691
0.21055477175233772
0.007211126115307766
0.23058308555537432
0.06137877141045242
0.010618472563749284
-0.11645879406696445
0.2588486515126414
0.5659482560941204
0.5515309337920171
0.9108970601016758
1.0778979104500581
1.3920453936872692
1.0387030860779662
0.9826722619015743
0.4861546977776475
0.2393187890926411
-0.024748316821441657
-0.12813303454179492
-0.09027621435990346
-0.10088801383980368
-0.08201476157621568
0.13309822175627833
0.08721281357786091
0.050165233089633776
-0.11434697420664088
-0.12110282830704812
-0.11520106000342437
0.026515131067180238
-0.013384361161806819
-0.1581262744852983
0.29949668563957554
-0.017234447592260078
-0.0651168525007403
-0.10522850064271322
0.029256887957279473
-0.10365085030264008
0.1895670373119441
-0.20817580169522476
0.08231297463151711
0.4477280098161333
-0.11407536120340159
-0.06989757831047394
-0.10799977367074505
0.01992533593466241
0.021044278476741153
-0.07937625187239296
0.05189531067219895
-0.1914529545614038
0.14756384591396005
-0.13614489369501886
0.24291307649068125
0.06168549468717304
0.16305588556317127
-0.18935100974754532
-0.11506215594985247
0.1988956271491593
0.12436307324261835
0.021892203487170987
-0.14253631351090748
-0.10753670383919767
0.2529782636892957
-0.19508564956404584
-0.4229669853726159
0.05004462744454055
-0.05873500934023723
-0.15609980320179842
0.03357632528642493
-0.06771990308691456
0.16968104230576259
-0.23825349754288805
-0.12579354244658703
-0.035323029439896375
-0.08148288270008087
0.054602821841674594
-0.1093440823704385
-0.22607093923485824
-0.11271203984292666
0.005010570159273749
-0.004389411975403374
0.15889117948827694
-0.19847065256537116
0.24334882229988541
0.12477878162178938
0.17792252585566293
0.07307019823129264
-0.05444251315874836
-0.13147441410312571
-0.11954705977146574
0.03363741345153706
0.12123159651334292
0.29074824596603366
0.06047776188298069
0.0056288393131063985
0.2544388220039385
0.3965492073716804
0.09665841391858049
0.4049430646439689
0.4343694204116094
0.28922337239953094
0.22557591913099911
0.47050992982543804
0.36559578582656294
0.3081933585435151
0.3062181338599962
0.1607167755831992
0.33998517960869734
0.43382685478077826
0.0003356381818230558
0.06681227327850346
0.019058889175789906
0.06737614127795961
0.07364703215605972
0.11566588973755401
0.18465757938512176
0.21142240089197364
-0.02185353032151674
-0.4191057995248678
0.14635232792979183
0.16934336099176805
0.26072020154910097
0.013706848536728202
-0.08490512838108472
-0.19287924747839047
-0.13640490547309644
0.09996874975932954
-0.047077540492830826
-0.009827432320871582
-0.19649706426840183
0.15446347666391022
0.11006486264018459
-0.010041439974611547
0.022842308193382652
-0.009721469253878939
-0.17550368654545498
0.004516279490729124
-0.036072050696384673
0.038692887749953095
0.19493295972513677
0.009215347361928574
-0.1981643359801979
0.31630297567992693
0.08452004501903859
0.22360880681104128
0.12077963939113234
0.02918199398004156
0.13528068045292269
-0.1123462889335246
-0.08528108318165156
-0.12004468460280647
-0.18802325802009853
-0.21830800237797351
0.010693853550261404
-0.04491753169406142
-0.09428917068750661
-0.3211840929174576
-0.1823641801490211
0.21859000008426824
-0.17157578166354545
0.31618827725762083
-0.1328686301541083
-0.0006795666776864219
0.16751859564030902
-0.17108894563694255
0.1834074500289929
-0.1577358536399463
-0.15398438160315245
-0.2394338721933244
0.011829677834699515
-0.05886192177076576
0.21110869139158814
-0.2606953018433499
-0.1577492533478708
0.008147964562174582
0.3852399457504567
-0.3015785227676656
-0.06451209298267634
-0.1441707167715229
-0.14334641040393706
-0.068753505999105
-0.0020723269919290578
-0.113381381810024
0.08712565477047003
-0.0414575027825294
0.19048525707772584
0.050932892886637285
-0.2665675043139156
-0.09042413851980367
-0.17257066920445505
0.17694268282255338
0.21480266045025398
-0.3960598611398018
0.0541902880719933
0.0002537146822420072
-0.1244714393890225
-0.0044128339593318845
-0.2328916789065682
0.06797339164351558
0.09056502470055972
-0.31760307665306525
-0.049274810351765376
-0.10602434096243671
0.16343992406969168
-0.11605602893090644
-0.43874382258445166
0.028557115059652867
-0.180354092886247
-0.042349739954859175
-0.1259983782042339
-0.08870614891162937
0.1657905505108716
-0.1875702871841526
0.06284286247355797
-0.15184642802777173
-0.010518289132951065
0.1432954799623532
0.2040412108473209
-0.09619068717193661
-0.1534826551798257
0.13866704396696874
0.018552994379063117
-0.15618125480884784
-0.06488450663251571
0.1389547931717019
-0.0672204908836536
0.08149548585717739
-0.16561037989668673
0.1929037693099794
-0.1067595313058476
-0.022194653315457905
0.058934407898281985
-0.022696125355933818
-0.11979183104654526
-0.05639150139819299
0.16694085953674778
0.16359836422264154
-0.011735751795305826
-0.30914569734518277
-0.07838523946687076
0.05686040021508506
-0.02323391543552079
0.15251220159917814
-0.022247821196959675
-0.11409234494570472
0.1781595634264523
0.17206447720874787
0.0009668969143191212
0.16687186910556057
0.11970253092734338
-0.020023867986279704
-0.012379746639977313
-0.3586076494610602
-0.0016855294935917892
0.13725868059282295
0.09027218320869203
-0.3637170144632742
0.15409478783002603
-0.035417022080359496
0.0551624295241855
0.06179939226587572
-0.32640628624305407
0.09983862827822583
-0.18495685671706716
-0.24413804143275908
-0.37374931771392517
-0.0032417198972203337
-0.20325753740289396
-0.08948810588581098
0.14404424780435035
-0.01514124094678396
-0.08745365235590283
-0.275099829119084
-0.1268276924610756
-0.19018074022086023
0.09765191380650116
-0.18625643478672557
0.07883271435289299
0.19031653618482064
0.12439770590891616
0.006285599588779573
-0.009715322054278107
0.04558124415827208
-0.1868815088420466
0.04946691103038262
-0.12828382064954702
0.11753378351504962
0.11060755924757391
0.05877337515666989
-0.05105453903150692
-0.035598365367708794
0.0352057595803633
-0.03672039564931048
-0.11523130962824348
-0.1584029702208377
-0.021648814884614224
0.2035234679664835
-0.032117659902873394
-0.03707436013297428
0.08658690861136698
0.11881968093233339
0.01430736242638588
0.07255851864075441
-0.15305530692950828
-0.02194937733329703
-0.1416426021365257
0.26599499275499305
-0.0758906103232901
0.030923269621499595
-0.08035785071438772
-0.06899755705498023
-0.039698641504798786
0.02930410457575788
-0.1430536294811578
0.031074789042546527
0.08176614801427935
0.14387304109204713
-0.09171258981640355
-0.1384995507111804
-0.06979164595411176
0.16860240311431854
-0.14011857422256374
0.011254625440089126
-0.05692674813444824
-0.0075119754379602555
0.38983852803139984
0.6041148357920194
0.9791950797176877
1.2027652113536529
1.2297670740204387
1.012261684846186
0.9212002433063009
0.4729093940056889
0.5170491984768082
-0.05250927244254072
-0.1623253923637581
0.2237875313082461
-0.02962170198616793
0.08857458107191063
0.05638784447987266
0.15977061429998382
0.09993290542877759
0.15269727873677497
0.013864821597973429
0.08202249446719845
-0.08316136485292806
0.024784889615261037
-0.12098095819381705
0.017277461790091427
0.3148389382858652
0.033646601787115996
0.26467529438934734
-0.02245056237002838
0.3500856565053479
0.09665533682371051
0.09685437015518614
-0.31015679149191877
0.06100943057862998
-0.046262635213109256
-0.11943641144285251
0.06357248410983882
-0.10420619001234264
0.14977932408024658
0.2541891884224648
-0.07526892427025109
0.207574187080768
0.2694938247610368
-0.1495964617329248
0.0788894839883846
0.3006113032444686
-0.15216352896778404
0.13520072888333773
0.01998474643997092
0.10805629957888901
-0.012647953050258348
0.1292701848210605
0.21661225725799668
-0.06467817700215081
-0.05709718028614684
0.29523387059485223
0.03825854444922232
0.23296823505278894
0.008612540163146972
0.14128075435165394
-0.025731564041741657
0.05324816494357979
0.17782759364863615
0.013393719552270662
0.1943570600959823
-0.0864033690424804
0.15181353243506662
-0.10551938711517803
-0.13423710656587368
-0.018907965827675646
-0.1359272443596389
-0.04861036815867004
-0.1721686354298528
0.20724550676709172
0.06401967981417994
0.0777470411357369
-0.027051407608428234
-0.3295518923364751
0.24867167867478338
-0.13824503903437277
0.0656004996134471
0.03146516182456139
0.060269365596235205
0.11112333447881521
-0.0019323735729912112
-0.08941413799405885
-0.06846114506931714
0.10022651242685696
0.4143746110053604
0.5044457587923085
0.12643650460140002
0.22176685012748693
0.2528708938073456
0.19769024501311802
0.4026954961221859
0.30929678923601256
0.4004388422921783
0.28045819926161686
-0.084939414282143
0.030735018044981494
0.22222658177889953
0.18129777316426995
-0.05213561845347417
0.2816081994743082
0.23035266520662664
0.04321041221638286
0.029895142841482508
0.25979830496475653
-0.15773404930963084
0.2890502379881593
0.0874197203619353
0.11792328563569773
0.03726593519769523
-0.18498113125142074
0.13427723650735923
0.46912887293146693
-0.16342029901453714
-0.06936391658568057
0.10315481572851734
-0.3218098829660781
-0.08290847187173904
-0.0748935949062699
0.27354361495360924
0.09525564962638756
-0.012892062360037817
0.007798199549267367
-0.3694274458601786
0.027119363199713215
0.15430891955264361
-0.00705854253216254
-0.03915158136693519
-0.02511233590582854
-0.11485144672032065
0.005535918300070082
-0.2986863746893293
0.012973181731893813
0.023803145246537847
0.21763021325414106
0.08252529234529057
0.12067507879324164
0.019922051815618992
0.36714716925752
0.15712555046912943
0.2113988550426637
0.4144435985115365
0.9620614124866903
1.3537399704831763
1.468368850093516
0.9991997178461751
1.0577170755861787
0.5807027227271925
0.34866436963785474
0.45118679013520946
0.2818419376907141
-0.017698205310133684
-0.006762171128337572
-0.06112536519253144
-0.16386531623795114
0.08272077360407244
-0.17762092217562814
-0.151097732313925
0.16456195722418523
-0.029532188591544967
0.02917009032898551
-0.04178498663927822
0.1196999228300571
0.16092102955364526
0.21151585819461577
0.07275015311844525
0.13300537204362672
0.07922705121606269
-0.08891813823184297
0.11961140027201599
-0.21288904516261242
0.40223048433650826
-0.10859459014102374
-0.11239544468974821
0.07865385734788145
-0.024861797928882132
-0.03198905293374956
0.33786140098065515
-0.047712694550278295
0.17134301962686488
0.21110957183455542
0.03737874660600408
-0.05863073659027086
0.013279320923008906
-0.01834969481613825
-0.06323715279638849
-0.2662391466743492
-0.14235919994285
-0.15472647534223916
-0.29983493259180144
-0.04801913983342513
-0.25699995685722515
0.03033789273815762
0.12065212194009695
0.1189512111206722
-0.09255712509707928
0.06209350630895039
0.022463314862022108
-0.19741218814351513
0.18088963538434227
-0.14377805156350468
-0.15661746987798295
-0.06534031142578162
0.08432087892313779
0.1561835303760741
0.20608297118346872
0.12536505114127572
-0.17448088965093292
-0.10019004075266538
0.05969668213720677
-0.3427803318785746
0.1351535714938581
-0.12347001509234125
0.16223471304078266
0.052415010192248014
-0.05483390956924364
0.10403559393365318
-0.09184439000473692
0.0951271589766379
0.06857329080095671
-0.14899685980171773
0.008274787801707054
0.07255241242864262
0.22638203556751496
0.3366541555796274
0.6157411453032469
0.23681554953352207
0.029764124575240247
0.03848126827876888
0.30182007326839805
0.35299840194460846
0.394089399751341
0.5031844055621264
0.1034351271326345
0.3553198583351465
0.3296241483305507
0.18766486740344332
0.23225654385971525
0.4306358279916295
0.3349678522426636
-0.0026690472234439377
0.3890968716938354
-0.14538623959844454
0.22582850527790355
0.07859186633211789
0.1283429769984906
0.19716867635174223
0.09554842257222476
0.24030935720345645
0.09055611219927273
0.1810776706268284
-0.06986895572426148
0.05146403047065201
-0.20900369260819698
0.029616335450237903
-0.012017215269906506
0.12801849525703266
-0.059497863847892296
0.04314266104828102
-0.17474980891979877
-0.16480241135120108
-0.1934473664182576
-0.09714302238753517
-0.147855560007482
-0.1571091652653765
-0.1247849488886828
-0.16335898433693655
0.12647088941463094
-0.04428788740428723
0.10725025427635224
-0.11643788867944309
0.18137004315656904
0.09634126351771638
-0.08993366840345329
-0.22957914211727393
-0.0775004640858163
0.11986308894105266
-0.15250978466148382
-0.18539649737462047
0.0068121297870860536
-0.33944658402873507
0.1210212929852724
0.3299035179681861
-0.13728933399082194
-0.042698467061606085
0.1915117898915655
0.23824393730670518
0.3424009473824696
-0.1825322404418807
-0.012149386207847463
0.16099278434247774
0.2205582147487913
-0.2933207224931397
-0.25283072138653956
-0.061622257647548376
-0.17606113713850155
-0.0021325400030031065
-0.1824277080824021
0.10592425725256147
0.17085908194232768
-0.21983687595914517
0.15661245349069283
0.0652951288139455
0.11033547301797858
0.167798016212639
-0.24869960684155756
0.21956228285892945
-0.06070286134476228
-0.012637223639120182
-0.2478359826858933
0.03967751869375577
0.03515637725649284
0.04392963788005887
0.053981660047825224
-0.03165777573486831
-0.016272267760142786
-0.007914372378082252
-0.24843758958143733
-0.25991290038079184
0.20624495009610772
0.14184481043106825
-0.1582757066577367
0.01132048602016782
0.12024641348623336
-0.009617078191592474
0.103251977000907
0.042665847169426806
-0.20147848391754505
-0.3137558611342027
-0.009211554993034622
0.14902529937839082
0.052248871482653336
0.026058134302800927
-0.24069007120003913
-0.0858154660366919
0.165871261454756
0.05641817156331569
-0.17189506204891866
0.39576152018440497
-0.23090457338425646
-0.16136066421319714
0.01086466704813101
-0.05469403870261611
0.1273831566867253
0.2093242896203495
0.0874081476410898
-0.3064537166470361
0.15143792147887405
0.26800604471958683
-0.21564347881258836
-0.226195869090138
0.053994009053184515
0.07741773833389913
-0.08838908932039122
0.012582202711230762
0.10576200413053913
-0.001463604367296699
-0.16473109538632655
-0.11940472766624162
0.21070287781750993
-0.003301343645857898
-0.06995929273791812
-0.16422134878138167
0.21231984066882867
0.01858907864590521
0.10775779896441894
-0.025621470960854643
0.1267535478810896
0.1031871986945666
0.19829053486504045
-0.17578666633758244
0.12353500208513081
-0.05660988854404475
-0.28283773832435993
-0.21345751404490934
0.005626337928114211
0.057848789859441835
0.0878033260244862
0.04591096801936697
0.24446304305476751
0.2895485097118205
0.5791803553961686
0.9912480611898644
0.9738561155358751
1.098528763086425
1.2916698456214177
1.0154279929112808
0.7388404611241741
0.5738089500706778
0.27940956852720134
0.13204272992258012
0.023210376435773304
0.16167985274351995
0.10040685850902081
0.19911388211082015
-0.040540013437474466
-0.01994102097231455
-0.00476213834321242
-0.13217093186201317
0.0929997728575553
-0.12493762210161152
-0.17810381928366015
-0.07166541522274754
-0.10230184554873013
0.14018337946354686
0.5115148568628605
-0.04018618480610303
0.06548332740642804
-0.003854955576298042
0.018718178020839325
0.14267404118412438
0.2879544480457686
-0.15867941857416862
-0.07872524184997601
0.12185069811352546
0.0016466633624120659
0.12658150160937282
0.19676631105060058
0.2431003752810832
-0.11987072040408624
0.08074820896776973
-0.2222452918841758
0.10874135763961759
0.1889384012340741
-0.06617482219759872
-0.19810193297266893
0.10335989838496491
0.23452452727451534
-0.13789145319329413
-0.12153161985736716
-0.09200852745536883
0.24565014222550915
-0.06222138041763904
0.09367392299564858
-0.13108170833693839
-0.01484497358503751
0.0597706205659857
0.3743804223568241
0.046203655110353875
0.07543002793704584
-0.0036487352062289937
-0.01431403852736852
-0.012022574391802845
-0.019619988344969093
0.020540877687752555
-0.018908264214104745
0.3535108396759403
-0.13008529116328937
-0.17211745072855938
-0.09811938100857182
-0.13666267180100042
-0.004356605634552443
0.02130458013167727
0.03483686525848895
-0.028261010399436202
-0.01029769932284612
0.08111823021708582
0.0668539679444498
-0.020537937253380333
0.30406812974558284
0.18664448942678136
-0.08273416355309099
-0.19780516674897855
-0.05930980317024001
0.2226020165783412
0.026205691629512293
-0.052620992852549925
0.06350725226413674
0.1124914932083759
0.012114374822853047
0.3332034453208363
0.08474256212058029
0.09034644785272031
0.2815095310643295
0.16408969505071352
0.18941480682827985
0.1346723629528458
0.2703489878878834
0.253610888142052
0.39057976297407915
0.14945453598094968
0.39883062605334274
0.05842053142321274
0.08922423195146514
0.028626162039012484
0.052600789113936085
0.35922899392430274
0.2185648436719529
0.19222800308736188
-0.2679828301969089
0.18267867248003283
0.08409316689707189
0.11930391955602884
0.20902415768912658
0.2705259388610159
0.037768640809562784
-0.15465553235889198
0.18126920751240094
0.08744889549262706
-0.14743659491744263
0.2695336262245146
-0.3121710198646096
0.2258042336060319
-0.04528182893948392
0.07020596585597466
0.013920460480924431
-0.19527739297202473
-0.16784578425967403
-0.22545298082788634
0.08066986391380444
-0.3176733556903915
-0.04591564754169863
0.12062015267537642
0.09680484277654794
0.15581880847395896
-0.05188375339796129
0.042763885121925506
-0.07589890955269674
-0.3320980234656579
-0.2005005967834717
-0.1515488659017297
0.18979592835618514
0.12964274575209148
-0.04597137883079011
-0.08805372559775818
-0.060132310401719895
0.16512300796498425
0.07262733159623128
-0.08629059089604994
-0.15145683499894413
-0.15104860428064523
-0.20675382870590192
-0.3681959429745949
0.034092535753476115
-0.28634841979939524
0.23324523190247015
0.3997934090301673
-0.10776259790113182
0.21622354225639256
-0.14325564701333113
-0.06126904217817404
0.15194567137219192
-0.12221968761193891
0.11260296627690783
0.21717618124319704
0.32719532067165646
-0.007265083504570083
-0.061451154396377786
0.06606974261871838
-0.0818366534330821
-0.05097578351410907
-0.013356387322898669
0.006830744970512201
0.02229591752970391
-0.09445639460460138
0.03709148615993595
-0.08322895561810618
0.0021909173377254896
-0.09687093384731893
-0.34066277226744623
-0.007605266489846241
-0.16462586243567362
-0.12695510568545462
0.02052914345782736
-0.3414719600284394
0.08497950769036909
-0.10123968006951367
-0.2535655214925774
-0.050297593579376854
0.026118253854192582
-0.16969504889782305
0.003906540078664312
0.41585828780798856
0.0943790102125159
-0.06582911670124458
0.22089289353609953
-0.0649804425572309
-0.18041416420824238
-0.1077250793920249
-0.17684107211766312
0.33907535179817616
-0.062259538246344365
-0.08639162320952669
0.20311301618006486
0.2876156628740851
0.04615635114864939
0.15970089952117136
-0.14087173419053842
0.15334200323947658
-0.13171193980780718
0.13805974129782736
-0.07876644607685176
-0.11160314989569423
-0.06762394923555445
-0.11485078798328924
0.26184997602800286
-0.074250771345824
-0.31087590826837913
-0.05644096852835842
-0.19400826786518996
-0.1915684400930619
-0.07361102028798962
-0.14313372408743222
0.003686705607643106
-0.25407385282930106
-0.08558659377622348
0.05572339212739661
-0.04607243709490781
0.14270357686436166
0.06531018323561817
0.34266540960374153
0.0538513551860061
-0.20512083474777015
0.23381621342367093
-0.15650959172183937
-0.005494577148277828
-0.05104547131001861
0.12332954291112508
-0.15585784525466695
0.05232015299073821
0.03598587290153053
-0.08863321195677865
0.007414219694012713
0.05740582467518007
0.061421840009493356
-0.07001246235495942
-0.1499277285901616
0.04108491755397249
0.06765035589910705
-0.07222747500823717
0.033828151605793465
0.028349243177515707
-0.02487775433752619
0.4968528768029494
-0.184774593182501
0.2808179074727041
0.30618380377992865
0.6521292926888369
0.9731476036070091
1.2327978048402584
1.054892139043308
0.9440261318569981
0.7078819598488443
0.5420277137076192
0.3220980524871209
0.4989294080023518
0.11737357476156404
0.06939899385597348
-0.18606698984030895
-0.3547390824021531
-0.28329195264806456
0.01348563499139109
0.08934015604501264
0.28840678909373996
0.022186841789141765
0.1291212417093903
-0.08728077168508952
-0.032684427111767306
0.08002249583719943
-0.18004558094565187
-0.07186380382018441
0.13255404851237465
0.1646444083731333
0.1294062537879533
-0.2853814541366362
-0.06938488334583603
0.1194188592193124
0.1314910355109347
0.1133695259574184
-0.2534827121914856
-0.14108647242814185
0.4836644643463057
-0.2897615984793847
0.20247737890332626
0.11917090616080586
-0.19367127702852702
0.11248303451774114
0.025565960699288192
-0.05629649262632837
-0.20313677073228217
-0.10655360037886066
-0.11458820379384584
0.01838954627910331
-0.033447746284603674
-0.2324793970846676
-0.40588422704843113
-0.037085885901269385
0.043714902390066035
0.154524756297302
0.04244882907447986
-0.26422951442430187
0.1179146080795525
-0.07824234994752433
-0.1503074006098168
0.02128063665142842
-0.14703715583886198
0.2493665695419697
-0.16123878959276758
-0.21447428208842634
0.3870678325077769
0.0005035852727910241
0.02447984155413583
0.08456652320960074
0.10020841999497189
0.04977788899368849
0.015241331472316044
0.09173396903329033
0.17118197740106506
0.13386519207997577
-0.21521384948834896
0.18192572045294952
0.14923189157423092
0.1244420510851418
0.371314805040792
-0.0879054007610573
0.11385418861441493
0.09190553898199111
0.026054293133252436
0.00037666424059421
0.2758302283943459
0.1491200355643549
0.2145544115123998
0.33002214790011963
0.13777056158444348
0.01574225684075567
0.3016154801613811
0.11818261480043096
0.2769869504500641
0.18541289341160738
0.30033111301747184
0.43175351177300014
0.0759795960526784
0.13014182618487735
0.19591242971411296
0.24734966068019934
0.21653363881852428
0.27873221962483663
0.22266965866265567
0.17829387859299334
0.2875055576083724
0.34811973472471985
-0.08409716405703162
0.0780199367180201
-0.15145500263156417
-0.23437501214628895
0.25307311539846283
-0.18960382486278238
-0.11797345337982774
0.10953207497024946
0.27817095200165043
0.1788301693484628
-0.2268456429018894
0.11947420394732805
-0.0028626896541900358
-0.0784049220558964
0.14152551539051503
0.16021923833910048
0.08257730465568053
0.022421781632020868
0.11532492571741647
-0.1603186849858161
-0.1222974727481932
0.21026688890663375
-0.06558873842770949
0.17374648616747645
0.04180103654236333
-0.02530705229757469
0.01580786959024878
-0.11767394678959822
0.10134451434602153
-0.19536579648502625
-0.0849121450406858
-0.2171977009373382
0.07584754783213268
-0.13049764340396117
-0.27371169121591743
0.20200792458102096
0.01235369078495028
0.061626551793519196
-0.14874868244114975
0.39253412853798064
0.003284045717677139
-0.14216755606604353
-0.3007235012149959
0.10130271020848719
-0.2700242602128529
-0.1353337127857888
0.22237932561989163
-0.06946739094806022
0.06622600886664286
-0.12402871116801095
-0.03345706635701686
-0.14514986285458867
0.012471801152689163
-0.15957619216714702
-0.08554085727525054
-0.0692564294135678
-0.14242750349539543
-0.1442179162193382
0.05536553651557812
0.03350085954929101
0.19405009647541666
0.17823576218264855
-0.12073192100186372
-0.231457265652494
0.0551450269609962
-0.18596260602086698
0.05013798934637791
0.2904296981846314
0.09730365415753252
0.14230226523763564
0.18373527803163742
0.09739723055934023
-0.38382310063838554
0.11967245166501482
-0.039010597901323815
-0.0940485471674523
0.15497424521419453
-0.18316415045215292
0.1274016491267528
0.04787870246405345
-0.08829368164380998
-0.2636403556015924
-0.13524678528704392
0.08087989875830733
-0.32270701563554827
-0.2680389230261276
0.16753923722435918
0.13357014671454634
-0.04496027020740535
-0.07408936340031717
0.019642667171201174
0.2044362511559294
0.2071242513567748
-0.4433048486211584
0.2091614416736746
-0.11477465327325401
0.10499780985471557
0.08552163830762602
0.10408120963132633
0.13471962409533828
-0.08380549482918727
-0.08469014641384102
0.12233030779258441
-0.3299535829764582
0.040291506928451494
0.10342619594324703
-0.2819890167563198
0.15696855176241206
0.06772594470784526
0.029214767795890884
0.11884722909942384
-0.176397172149565
-0.05474714090023588
0.10470432316518323
0.021148209763959275
0.09039821128729479
0.003003720691058087
-0.0039078546289459375
-0.09785783694886353
0.2521499953956308
-0.11876999854474109
-0.004982912461623494
-0.0799989113545464
-0.12391488748118877
0.05212075781588598
0.20284520750126414
0.19083807909325787
-0.04304298403191549
0.18527270515095615
0.3110524775160394
-0.31683630868974844
-0.1651735146579018
-0.2293566052313875
0.028732142033584245
-0.07792419461232646
0.1372735045733
0.005061347378962644
-0.03283574916560632
-0.23116429650634432
0.03414974307709956
-0.04578807090088485
0.02151566874472146
0.03319164953504036
0.41239704824521756
0.4290989773250843
0.5946970400932837
0.9887208615138982
1.188825155953784
1.1398571132935755
0.6926844748436125
0.5728839872406161
0.4765391464247875
0.3762703026888865
0.2694642800162509
-0.30232792020891097
0.1876855184066402
-0.11149646831715052
0.23650145203930795
0.1396877511340189
-0.09777556306640407
0.10222641232806393
0.07034445898476446
0.1212667330362567
-0.2142069317456628
0.06602058063303391
-0.1550961422827667
0.1540649138020817
0.08289628828269743
0.059931457667529754
0.12766014599404854
0.025372968783996402
-0.3224142159595706
0.2926141165141195
0.2115401228450809
-0.13141597568657937
-0.08555675658881028
0.10292442869181102
0.013662523576067204
-0.1877744694614279
0.21673643732990913
0.1343080383400607
-0.020304980841021968
0.05611339113694911
0.04033248308507829
-0.014039572276123074
0.2090506370946773
-0.026435878053417114
-0.2583879559030795
-0.05980172159185033
0.4475753112388698
-0.14006589417242987
-0.31928133723956753
-0.2746937088684783
-0.06655556211639642
0.09222276561055967
0.30047669589013476
-0.02858056174968153
-0.025679023672380688
-0.1689173624824161
-0.1445291166549636
0.08509099702871034
0.06838133035947304
0.10948608876032996
0.0939138048381011
-0.09324661944587295
0.10000317976683602
0.0686388980272716
-0.2281944159520919
0.0803537018282255
-0.07702249546471661
0.1972612374391731
0.06150151639969599
-0.271708744521605
-0.03755869085287084
0.20857807896900882
-0.11702902085104301
-0.15177460987674124
-0.004480263024321321
-0.06534303253602652
-0.22715837706449749
0.2371730562032867
0.12523956010427212
0.013207537917938175
-0.12892247254590164
-0.016489193170559177
-0.1233627470295833
0.2055111446073006
0.048100861318461266
0.2114499807831699
0.38156772159908037
0.25963980273042664
0.49103030153726424
0.3927938044052909
0.26842591241259794
0.253245687461515
0.30873594351571565
0.2075090108838053
0.3719181465633338
0.08112622002462466
-0.005260729744308135
0.2941125784435013
0.0913905063533976
0.010742719355812391
0.27873280732406913
0.0015473904450288567
-0.07872506443976279
0.116648016624038
0.3252557113520367
0.0843622460288927
0.32001353183060044
-0.17862850843717576
0.11592627299363992
0.1274835691167112
0.016595198987992815
0.21589365496480062
0.3083796244698632
-0.009158344779081486
0.09216086530084674
0.13864165382177504
-0.021625551910385406
-0.14158964659506026
-0.08085057592945173
0.06484549761091726
0.12304573288977148
-0.14975805582562238
-0.05434936679544547
0.13483624994498042
-0.2802056442420755
0.08551450464494655
0.21169841140445486
0.21389340854315267
0.1167464383934082
-0.10272378488965414
0.07846967159401409
0.11654151228498774
-0.11156311514047226
0.24217418481796976
-0.05921610977961486
-0.12362482238375275
-0.07102162044838967
-0.1224027428262529
0.010834767002343282
-0.11127168928314697
-0.06986101721842122
-0.2506491750974756
-0.07963984087872009
-0.023395125458933203
-0.03515718375183771
0.13374371247411812
0.06527950662863674
0.39178411180427913
0.10123303012065805
-0.003849315504670142
0.2865512178046729
0.0033771331097074836
-0.04429172941149465
-0.10546453857472453
0.04478092175934737
-0.1900591576270735
0.07732787770108193
0.21349094023576823
-0.2764389585719988
-0.32856870829660945
-0.16594466520807372
-0.3117972660965681
-0.07219428209179407
-0.10802359748418211
0.0015835342420119785
-0.10667099441876532
-0.25308384921712285
0.0326331258719595
0.039434060293015424
-0.15338411733718285
-0.04154382973663747
-0.04627204349242749
0.20816436892342458
-0.12478149787983076
-0.00031068828759136304
0.06539802271897999
0.20889249845810423
-0.05438743047333687
0.157857720092362
-0.031749702759664426
0.06919348534241146
0.10890329016753172
0.17904703398332802
0.23134443299696286
-0.03457176360751101
-0.12032779345283559
-0.047588502622671676
-0.069769075731851
0.08853335459424834
-0.0599147693419099
-0.041005303382407106
-0.09397467763170775
-0.05281237788096979
0.04920639639024592
0.11805389571535872
0.14752191488756886
0.27914433041922315
0.4381488378095488
0.5994386222970132
0.9323274628682786
1.2285102340205418
1.2850890688630268
1.1848832657288564
0.7671129427240835
0.5257344926198761
0.29118968656256156
0.20550675127612344
-0.1404385237919811
-0.03771066556133463
-0.1509871145118066
0.1588355752724694
-0.15003905494074934
0.1150643261836789
0.07454258266135895
-0.06690608615754202
-0.21799082824022148
0.010609571036035752
-0.08843044615371397
0.00022720932573054047
0.0798320926502126
0.10210332936621513
-0.024145296983757624
-0.009611376858997192
0.2759162102403983
0.0876996571483276
-0.0537145480535596
-0.1710953020976061
-0.35890133714880634
-0.0936992821638713
-0.10153249060735073
-0.027440263730975318
-0.18957416685307088
0.0289944937903086
0.24662603699574445
0.25950293668373803
-0.11489220778022402
-0.006097177726191984
0.120679701062712
0.030167346883986958
0.02685603526159656
-0.16955954928188396
-0.2189055401960006
-0.24358238727090664
-0.062146013995974414
-0.08292151615431033
-0.007450133476174894
-0.013609817008656756
0.2524322828958945
0.23841983202412925
0.1926946114925434
-0.0649238059943874
0.2295117615746297
-0.04750720568402506
-0.08302161950067394
0.2167138724563907
0.0796639671275399
-0.20692407356179274
0.36772383505021194
-0.03204316855889766
0.18734453347751898
0.06582357425104203
-0.019242045171187584
0.15611095326266816
0.1287746563739408
-0.01793422594367123
-0.08652986199991745
-0.015138686863093491
0.19878749334953058
-0.08578087727113153
-0.0471343820590655
-0.2651862213510194
-0.15614783113632755
0.17245646653755586
-0.30594639484753383
-0.2530109181673747
0.07737303230516063
0.006105148182416767
0.17567279173501257
-0.007602263371217749
0.16228012090212726
0.13125662402178664
0.14846780600427711
-0.013643798356513581
0.4634536365889105
0.32771334231573834
0.22980911909421567
0.2843555573605502
0.045460978896347426
0.16528165756090488
0.28390974997525237
0.250078669972256
0.1759448269737376
0.38242527365441037
0.2266075871943423
0.27624006887977787
0.4185528154055489
0.08801354604257103
0.26578736930410063
0.2208949521596132
0.16760737644059195
0.06493590801643102
0.1032026927628042
0.06958523951610898
-0.10761968107302175
-0.06594749430760356
-0.06644680404354308
0.15813996360266244
0.1576789743923207
-0.07039959934569223
-0.024266749965528137
0.3765942050933457
-0.19201804658062752
0.016389803821651963
-0.07290844043741246
0.07483351373631301
0.09925520380589477
0.013201673358920914
-0.02009159929611635
-0.012555279850056708
-0.11801865064028699
0.27415798169691064
0.010438235790142724
-0.0008487495978607213
0.031144026274086564
-0.0367473599024342
-0.04733925093180034
-0.1397632748367623
0.11270878157976558
-0.11336323100420602
-0.03939511396682069
0.0015541450085810198
0.09509583076572437
-0.1473113048665032
-0.2038396058275165
-0.20513740733798264
0.029465734084512883
-0.11862634034887469
0.13380322502662326
-0.10240441373390492
-0.1440391070742661
-0.3666894399670675
-0.0724697623483361
0.11821828749665514
-0.21966109349233573
0.055564558327465347
0.056842434928935516
-0.0016323053203079277
0.05113671930651208
-0.00901017330226592
-0.1803322932429695
0.16581113937316022
0.09262718437532555
-0.056758118486990174
-0.06786480847946312
-0.027162107646819304
0.06965926657266899
-0.14796467089913798
-0.06052561817511668
0.24809939698114938
0.07316675211761668
-0.13372327732312184
0.2511995345381725
0.07321150554860828
-0.08853279136280705
0.04111926785375903
-0.16952742218995415
0.029599052438011513
0.08020239582509522
0.2619064311790727
0.08047820874666932
0.17756671922037823
-0.208191859406393
-0.005137801695095945
0.15672109049805213
0.06458399026804931
-0.122580830622919
-0.017668987335097086
0.1494102999692483
-0.18209382719377626
-0.1324068292876439
0.023335739832760122
0.060325425362723936
0.08100002524540267
0.23090222365922225
0.267229690794885
-0.05564920667659802
0.09967968567981576
-0.054370839420505995
-0.18979796644761332
-0.08550936594170322
-0.3306016236414816
-0.13005779087445912
0.17034090458700643
-0.024585833477201575
-0.28069569907282593
0.013791806717958342
-0.1301730185722659
0.06242502811538412
-0.04392972658139926
-0.2339227790949088
-0.06698489552036478
-0.23167618024686293
0.1240297325250847
0.0751007344427973
-0.14399358675068175
-0.17635134524649965
0.04922823773778511
-0.06524797808995221
0.2699284875226334
0.026678684706913532
0.28562769991241066
-0.03491928894092392
0.058293078720143256
-0.36016177334634386
0.18330997718663455
-0.2030609489634654
-0.20657753158321002
0.10564178501680765
0.05148534432103151
-0.007336237501645047
-0.007515689825726425
-0.0022516324428621935
0.12026404110238915
0.1953958397894674
-0.033022493635180165
0.11764111279817445
0.02635133816977735
-0.08654609411643456
-0.023026223329864377
0.13928161727470498
-0.11771285803903649
0.057166178570030333
0.011147201207923575
-0.09632928398400313
0.057806918925588306
0.02413041551302594
-0.12421160770401572
0.39343529031567775
-0.04321521376441613
0.1459237275043819
-0.2402099829185642
-0.15631391271177605
0.029759716497859585
-0.15368494807311572
-0.08358089681904818
0.1891164073557984
-0.05620160340920223
0.044703561552634365
-0.17228034872002407
0.02227699064112064
0.0013113122125982056
0.02629742404009325
0.15769398508299837
-0.12481873882189745
0.145208030730616
-0.05249415305472515
-0.20137602469650964
-0.12887415785726314
0.23682444402135203
-0.12095533397900637
0.033425977180705925
0.26252289618141855
0.3829913636249295
0.014800122225460219
-0.11220360411622506
0.027547642748287252
-0.0961852860260206
-0.16810254847796013
0.05400525960142433
0.037614549547417095
-0.37183200983542475
0.05702162197394363
-0.039998019857068176
0.06618967021997417
0.026028490460747317
0.18668951998822272
-0.3726079895900483
-0.09810648071832638
-0.05158839719214316
0.12523916069164828
-0.16410470847064879
0.2659812798989295
0.12301754318934849
0.4292074164900764
0.1381378804452005
-0.17565157653586133
-0.15543746978527212
0.11008753496967746
0.024175462130941232
-0.08719801128523497
-0.06869923162954228
-0.013461705313559582
0.08248653516555564
0.10481117449967019
-0.011153965130075211
0.09883062402009676
0.17531387317535377
0.24699346958487586
0.06461793618605186
-0.148020309878093
-0.06348814071939753
-0.19151687964070477
-0.1927276876124978
-0.02459319631808941
-0.1307423683645117
-0.2672221377305189
-0.03221705915077006
0.019009914059221186
-0.003140369761507852
0.06862060811747858
-0.013727041003042714
0.1767222742508337
0.1425728027826361
0.4224480544388884
0.7424096593213269
1.0694721229284796
1.0921191962784282
1.1695360174084712
1.056125443218187
0.5055167747127542
0.32664777693265223
0.09811428195572497
0.07610719470047883
0.01209165018080631
-0.08968028595951104
0.05061147205285152
0.034340515212365474
-0.10781660852152597
-0.09477896199379217
0.021674852647600266
0.01655796199050445
0.10376061786622852
-0.14190091855370865
0.023799510001775947
0.21042209674740012
-0.29172415043924016
-0.13670895609334324
-0.11142239528960494
0.014902011580165034
-0.027498735541373928
0.026529846955590315
-0.06460294278726161
0.20958857238578463
-0.020465906294604385
0.02583528449154521
0.018452205344872734
0.25170518058022523
0.2619656747548912
-0.33843505038415395
-0.07926361070564131
0.029520778770403776
-0.2140193422415798
0.09373593918328295
0.0749943733289093
-0.027215935265421518
0.13897765940127085
-0.1840538534293779
-0.31874205474302897
0.3034786898528996
0.18520394690414857
-0.09231905187564111
-0.00814503360687052
-0.08179084498437082
-0.12081047796255519
0.14557304128360232
0.048500111569906044
0.10727767223893772
-0.28049421006316727
-0.3059939078662108
-0.03634611230367671
0.055379178931044167
-0.05465728046853191
-0.07758040741675011
0.23657335072041458
0.39534634226695725
-0.1277259207247844
-0.14473324658797346
-0.1956491849532868
-0.0055170914017682905
-0.0480475141896276
-0.045160117528830576
-0.08392426256383624
0.06774116811817944
0.25065994513120116
-0.3584146376239286
0.04415056017271776
-0.28410807594076976
0.24249240602428024
0.12340502811336013
-0.1577348320628524
-0.05123122713441182
0.005107905525554929
0.31507865131981644
-0.024731042479770773
-0.041918844538413075
-0.16102755681660702
0.09977861001673731
0.05672377530986247
0.14963858494506135
0.15723614010224
0.07648855623160201
-0.05425625883091387
0.25809429237222953
-0.036686112662796866
0.36043309443311944
0.32285222404566355
0.24132823875579526
0.2519381213762287
0.22261537927179903
0.13128351060719645
0.3507095024795323
0.21097527621171042
0.2880668174362438
-0.029226250536312615
0.17171189699343078
0.2015263798390882
0.30759132728579536
0.09866162370341687
0.2168967176669686
0.24801709559226856
0.06930041800788594
-0.11302630093719693
-0.1171677522140756
0.03919469193921883
-0.15507972962633793
0.03331477680626098
-0.22896330267278645
0.15980074067881303
0.05186653739386709
0.26302679967891657
0.260979539941856
0.09887878662978643
-0.07697430132789547
-0.153274946401316
0.05864289768791498
0.007205825027563224
0.1307665628761665
-0.010248863381074199
-0.019072231209966598
0.018028896634396767
-0.37629022622749303
0.14129859518742002
0.04756506831494548
0.10277379467048975
-0.021602438022593623
-0.22556841215165155
-0.2708454511156344
-0.25621700271555803
0.11689812012458195
0.14614681178112285
0.25300231481358726
-0.13906643954719564
0.0843541713215592
-0.1030507358975492
0.1550381577612461
-0.004147532902401507
0.3355786272542945
-0.05045718328234539
-0.014379454525911517
-0.11334347720548633
0.10995883520739423
0.12031415339143614
0.22798232731773618
-0.026878787590010358
0.05189843073439439
-0.04242614285820418
-0.03686137267403302
0.15458715238253895
-0.19460805505697737
0.35735138175777803
0.029953474891529972
0.25120308703955596
-0.11812212991551782
0.0625014861007522
0.12225060611865925
0.1552214886059343
-0.17007990244890128
0.13770834123751458
0.12275658018190838
-0.1303120772145081
0.016286416071840712
-0.03509844414124848
-0.13910365574314904
-0.16730789980925223
0.23980510267495872
-0.11825489762391023
-0.030080534654641715
0.22075538179571474
0.2956089811378063
-0.10449538897310576
0.0028542918139858107
-0.11530767856580632
0.29426449894658413
0.194544460200909
0.04615213051923426
0.07447268573799262
-0.23038441318407615
-0.05910447112196362
0.28818019818171875
0.18478391415073706
-0.2986509883927486
-0.008323592469707966
0.3876188599837135
0.10737621008235027
0.08194964989876065
-0.16299246964227615
0.15331230083151454
0.1494087708393231
-0.07838441500191638
-0.22515691716736003
-0.27486934270346186
0.12697707943972492
-0.20362450300456778
0.23718153432968472
-0.15155504460629596
0.04049284206954779
0.17999888391022775
0.00372917880312293
0.08029860372265417
0.07073512381304041
0.032414000648250625
0.05769934457016147
0.0586167942512813
0.14397043610422858
-0.12566640592635092
0.16619135071497948
0.18571042459447434
-0.06412686549847736
-0.004515299994037144
0.09879846926431926
-0.17070634819038089
-0.2799365095939893
0.09099249715680868
0.09285172925357348
-0.0475346574258393
-0.14549462671749352
0.11637234410611486
0.25708433357639504
0.2407473775161113
0.11287975315038559
0.107779778007405
0.008670232152913071
0.011302113416308223
-0.01770250536898837
0.08737152069410346
-0.06370112264421428
0.22851830927371106
0.02770890972479433
-0.3270301835210306
0.29125523028899064
-0.18151219679811503
0.02458591576984013
0.0564221029143213
-0.00957554754060298
-0.023044299646524474
0.10741356322784021
0.06648183834702659
0.028626380951085943
-0.027612015052342596
-0.16763169574907844
0.11819078537030149
-0.27185307052759
-0.07762321925753883
0.23799190577061802
-0.26410926390334344
-0.22906401417006292
0.07481821392538264
-0.09986215787728463
-0.10957775164040502
-0.09274442513394542
0.11199049656723455
-0.33602118564348255
0.20471243427652486
0.254655529392733
0.1394604745725082
0.08079784594876815
-0.09775277234836803
-0.27530855867009274
-0.05188423845668581
-0.10177839254765579
0.05172403601949427
0.01251464249833019
0.0621749632160847
0.06141265590254446
0.09699182317164222
0.16408588768491075
-0.13385045306658075
0.11533260460817873
-0.05166156833515283
-0.040788710332298195
-0.33771480361293976
0.07045970947356907
0.17982607016012522
0.08111024851566867
0.031060699660361766
-0.022252956352524153
-0.06226072193934415
-0.02507854138861675
0.2089092403631494
-0.19320829398464365
0.11666543640153496
0.2461110208463677
0.06578243140608964
-0.0679256771061383
-0.03319336815650781
0.16808180013092702
0.02725236045729605
-0.26274639007890094
0.23092455360684025
0.15639812704040904
0.16747831193070578
0.29699627334333845
0.5992775258974143
0.8600042504736137
1.1288271088546329
1.2393433206299909
1.089737635335306
0.931581123993915
0.48071684412895554
0.4266051255793498
0.23925315043729764
-0.02905982472013853
0.38562846009305907
-0.04269728844288519
-0.046567464781982364
-0.005607296438161595
0.14134660438706
-0.1483243920261587
-0.14816909038831855
0.25864416886685254
0.062259286113767374
-0.060608839581528504
-0.011826283466798712
-0.17749866452867502
0.014674137337919788
-0.12860834704499
0.30283125909325576
0.03386027882065978
0.13288687544566027
0.04094948595620848
-0.250109465681469
0.14568893971090924
-0.10975786886877267
0.2578213553020083
-0.046720405562796975
-0.1320539571761285
0.006425794871123413
-0.08860912274508023
-0.26700193245626075
-0.11914660083213864
-0.04091118958990624
-0.05059497066829546
0.021657622410087618
-0.04896072755661882
-0.3135260135903895
-0.1507911490848866
0.053465244926042516
-0.26552851882202605
-0.06034935340573508
-0.16982382113535072
0.0796216797578157
0.15296524321363048
0.09647542900817661
0.21650461935241175
-0.08005206271090369
-0.08754212785018906
-0.1527167491670847
-0.023663537191526852
0.05907886364139174
0.0816511794483316
-0.169034373659792
0.12347740734862067
0.03271000862934035
-0.08855138889312551
0.03337896588846085
-0.04884971136280947
0.09728066289121703
-0.2806029875934772
0.030243498603812407
0.09186393671167291
-0.21712348547931762
-0.2875046102833877
-0.189498428722984
0.02975960157316648
-0.043856408818443035
0.1268128937641312
-0.16202416550256132
0.2894587005495415
-0.17149049741425465
0.038111421530230775
-0.07271486853663245
0.1385733272612007
-0.026701813519697276
0.07896164306788678
-0.007919274141331617
0.22614217222230087
0.10744948044861888
0.03844043032041869
0.07899600341958689
0.16495464740916682
-0.04727800253600703
0.23062139112428934
0.3022536279020554
-0.2630795503645178
0.2625342962599738
0.13649146011975455
0.29045872413581514
0.37482740205664405
0.6184617597226268
0.4003037652426606
0.14906612477234105
0.2695311539234135
0.17435696913562226
-0.019252497739586066
-0.038409049413613255
0.09880788801371324
0.0729062072710703
-0.17150707384401737
0.10788693216873013
-0.20439167479089926
0.11482031746284257
0.31916701395379454
-0.05723592591450362
-0.2049122591990665
0.12373390616019021
-0.045002995801931574
0.2743094433837867
-0.015145316652275564
0.023100385655780077
0.02650051484848151
0.2481405740056378
0.021398762205040882
0.2115092006616952
0.1504939848125458
0.34687332558243344
-0.057312535860954666
-0.07287657696350576
0.16114096508841835
-0.2272160352626234
-0.0964680916058099
-0.23250906501234295
0.012190123403583282
0.2568389556883418
0.1494082246814026
0.23210196567054028
-0.050491028345659376
0.22061805668744344
-0.054760367490983876
0.004134214971643853
-0.0035068986324111253
-0.031261122483029334
0.015524099011170845
0.41274873427100783
-0.17036278207701344
-0.13359879685159665
0.06434014919809324
-0.10932148525795173
0.15916840181682054
-0.02471483245972504
-0.0069954284366253415
-0.05799451889494422
-0.06799331521033479
-0.007727702569882673
-0.38642991600143717
0.031152971534028576
0.02602884869676221
0.052512346077016145
0.11505726873029956
-0.1131774784458395
0.30544793377544555
-0.17112097617221528
-0.08489474875746136
0.015851871541126203
-0.1996657228149658
0.09966749851865116
-0.050095778044911776
0.22040841977161785
0.13144914712556235
0.4743198348820958
0.4939141950300923
1.035115892972477
1.0455155455954386
1.2002716289565987
1.0511956743669202
0.9451993230340117
0.6006007058408621
0.18714884340414908
0.2450646898167456
-0.061995479814071566
0.16720475260070722
-0.02122976836162039
0.1686199166390304
-0.0015046729283013853
-0.08039691621721956
-0.04233698952933409
0.09364556421751889
0.10385014916981779
-0.04099381085448858
-0.061335308900087725
-0.18538625023190428
0.031364735547654864
0.0933609547526713
-0.021393695196589835
-0.03854510946377053
-0.03630401753917145
0.22624983175906582
-0.06896052189973469
-0.03765953397464179
-0.2865710279465455
-0.03687787949084475
0.178755880873025
0.11478806881085146
0.004302029718821649
0.19666803090718862
0.028015662591849236
-0.12980374954038965
0.010924354091288559
-0.20982859355729333
-0.033827567759841935
-0.007395618302360687
-0.1993508596329251
-0.1516888787444031
0.02158988535808548
0.01717913568417674
-0.11203798414773372
0.07591856692351558
-0.09798119427940036
-0.3228515484253173
-0.06320895952466452
0.16618095206002434
-0.1161566923199515
0.14126326984113233
0.29427128458681223
0.18174166012116044
0.05988312343899075
-0.15987650131225709
0.333636522394211
-0.2043891138305267
0.03144572099795796
0.05816302082550139
-0.2542361868812371
-0.1202324953245774
-0.13718783912705323
-0.06727467301225307
0.18960200698660531
-0.16458345609696937
0.013980527678701019
0.019489703570497445
0.1712109676558486
0.10436985303845611
-0.05671390811643565
-0.0878624556289546
-0.01708099155125907
-0.11568540112936607
0.018021723623746454
-0.022620874007248302
0.15748600879603636
-0.028275058779787365
-0.14905373209235645
0.00289241852168666
0.0661166375141821
-0.052416843492685244
0.027754733543128865
0.05136397486826576
0.1315497968919305
0.15550603229013094
0.41189154021834806
0.021880395409419606
0.42397220248719814
0.3928918228681066
0.2153506138853445
0.3662398319526568
0.20966748794823567
0.11282535394789645
0.16719855728316682
-0.07179614949583787
0.14446697875251063
0.010787279566687541
0.33263612705028095
0.051191230988380035
0.34350113484920786
0.19692704223453514
0.030824636094689342
0.25937904469495404
0.22827087895641385
-0.0030800518748627242
0.030361258768968592
-0.012044437618559084
0.08175619256148609
-0.32475322431259135
-0.06473266080514836
-0.11044795214442181
0.11025258604712727
-0.04385042182284046
-0.023588791382753244
-0.3214488975840917
0.08899006682742064
0.028933366981247998
0.06758638421800128
0.06566006795677318
0.06136450769130309
0.1252981504322396
0.20392959107972577
-0.007350661614505586
0.1921729875509094
0.1675487664396645
-0.07578725101113658
0.21114456095621048
-0.09469010717623494
0.2718058891236807
0.11656119192185811
-0.01608403273547468
0.17655659149425573
0.14569853857752302
-0.2230307756237972
-0.06817862006339657
-0.12083577882323294
0.16277113355154357
-0.02214642008348399
0.05447581807692375
-0.14640212532010066
0.26057146545428456
-0.12482006289471959
0.17062404180428967
-0.11306796981615165
0.03331622722186174
-0.14881593717804223
0.1715250234767152
0.021161018470107845
0.2398125128000841
0.11887610540425324
-0.0795281323129156
0.1598623273880211
-0.18711349715889197
0.09341873742760025
0.04815462415186083
-0.09021771734267246
0.0537676176786373
0.030768473322149957
-0.05890090809719589
-0.1817598057918333
-0.1050911663976821
-0.005649851924887734
-0.05453984696549206
0.040265793161791956
-0.07339791798217409
0.03493743937053089
0.1484955524033773
-0.29245740853445235
-0.002360109513662427
0.17964557351219043
0.10583234556710461
-0.06014792065072584
-0.030554583152923684
0.11249259913604412
-0.15330016005086392
0.0063958515053821234
-0.055183718660564776
0.009740669400805863
0.08418023657555808
0.06363470268919715
-0.1803513817017501
0.12020217080203319
-0.03171940557897197
-0.2892216234426224
0.08330666811556046
0.1057704112730462
-0.2085820874703678
0.03746504239299478
-0.08857046996014019
-0.17145844661034626
0.04803700855776523
0.03577075562144481
-0.09300275960374839
-0.07472246504685663
-0.14090753974020545
-0.11670635313663538
0.05996313624032383
0.05011777012334643
-0.14744536743503467
0.03613453210046143
0.08030890728598893
-0.038516953573526656
-0.1051326644116712
0.03458115939460264
0.12031149503279025
0.08317238556737527
0.06471687994333446
-0.07821598124138282
0.11648252758721206
-0.2606486400555332
-0.15685357810892808
0.11658727617173624
-0.06839743255489861
-0.03401038059246413
0.14748798654023793
-0.2095432468551324
0.02693468505143877
0.11302223151790018
-0.09564480385072559
0.09378657616931395
0.008557841224919337
-0.17634453225581617
0.05600550522978131
0.16485865149678555
-0.13218766634564688
-0.13146257903142364
0.055551917309997936
-0.028420304426613384
-0.1936789870825726
0.17461885314320244
-0.08186278063873581
-0.06579146127570747
0.28262468561437193
0.11011789268904279
-0.23397271751450752
0.02127072552978845
-0.08590449795312051
0.12122068607544842
-0.0886552687390091
0.18656729999073904
-0.13447062125062498
0.16781663959020846
-0.19585986602623046
0.2407808268477278
0.18556598924968212
0.009029542765411484
-0.11080302660203098
0.052326585948606716
0.08266444836022412
-0.09535475465128145
-0.03235435920711429
-0.10134396409003113
-0.004280060996061495
0.08307514374723399
0.2823763413736069
0.034706710834063965
0.19268508213815572
0.04584177713114773
0.4631045881687858
0.5970660468657478
0.8867347329535064
1.201241341205478
0.9597669684894378
1.0700978015251092
