time,amplitude
0.0,-0.02813708868526632
0.0027785495971103086,-0.024518794032388786
0.005557099194220617,0.009712862496406178
0.008335648791330925,-0.022106672465902567
0.011114198388441235,-0.034182878447462414
0.013892747985551544,0.04923399085933062
0.01667129758266185,-0.027859378969481353
0.01944984717977216,0.04950715239457416
0.02222839677688247,-0.016940868205960937
0.025006946373992776,-0.046889295125225786
0.027785495971103087,-0.046650981948944056
0.030564045568213394,0.028202707155312867
0.0333425951653237,0.05480723417665505
0.03612114476243401,0.026004304521396442
0.03889969435954432,0.014216292801818494
0.04167824395665463,0.04519534049280903
0.04445679355376494,0.02558981584304608
0.04723534315087525,-0.030870698166571793
0.05001389274798555,0.08908344475991083
0.052792442345095864,0.03486015625346364
0.055570991942206174,0.2441699848177791
0.05834954153931648,0.1441980955776238
0.06112809113642679,0.051386700906817157
0.06390664073353709,0.1227070268432274
0.0666851903306474,0.1389967938255368
0.06946373992775771,0.13677435611567984
0.07224228952486803,0.1824301220185941
0.07502083912197834,0.26638945208805126
0.07779938871908865,0.2421724216357968
0.08057793831619894,0.12358019068455284
0.08335648791330925,0.24323119596355994
0.08613503751041957,0.24933810995958994
0.08891358710752988,0.13482373956152877
0.09169213670464019,0.1320750395978884
0.0944706863017505,0.11215570444553272
0.09724923589886081,0.11917120096844824
0.1000277854959711,0.03420086598927993
0.10280633509308142,0.060159466811676686
0.10558488469019173,0.07916084203249651
0.10836343428730204,0.0055231967385974065
0.11114198388441235,0.06070812106417713
0.11392053348152266,0.06420735785051737
0.11669908307863296,0.3036702057174817
0.11947763267574327,0.4341030003520446
0.12225618227285358,0.8303424129372777
0.1250347318699639,1.0822077253196543
0.12781328146707419,1.347276755254803
0.1305918310641845,1.4159900475509646
0.1333703806612948,1.2651841919983502
0.13614893025840513,0.8512595058611139
0.13892747985551543,0.6093861218359776
0.14170602945262575,0.43837574920331535
0.14448457904973605,0.1188200788989086
0.14726312864684635,0.1526429955930798
0.15004167824395667,0.021740806586534427
0.15282022784106697,-0.01458027493974299
0.1555987774381773,0.01670273334661785
0.1583773270352876,-0.07098726084752938
0.1611558766323979,0.0744102974614951
0.1639344262295082,0.009386087023842322
0.1667129758266185,-0.0037092001334985284
0.16949152542372883,0.04370535076558106
0.17227007502083913,0.12142191790919304
0.17504862461794946,0.009213344615939784
0.17782717421505975,-0.0147858587269148
0.18060572381217005,-0.032638512017846
0.18338427340928037,-0.07141967766698402
0.18616282300639067,-0.06450552159360419
0.188941372603501,-0.07109880755569405
0.1917199222006113,-0.06297498433470715
0.19449847179772162,0.019998146649445332
0.19727702139483191,0.10170283662953135
0.2000555709919422,-0.07185260533701548
0.20283412058905254,0.029954031110663738
0.20561267018616283,-0.009217036464959017
0.20839121978327316,-0.1091243716803864
0.21116976938038345,-0.0012484565561350649
0.21394831897749375,-3.178149594777356e-05
0.21672686857460408,-0.0003914812402006575
0.21950541817171437,-0.010305681746091437
0.2222839677688247,-0.06817651687014176
0.225062517365935,0.055754731143119914
0.22784106696304532,0.03261109755630947
0.23061961656015562,0.10446719074349817
0.2333981661572659,0.04371353046965121
0.23617671575437624,0.0638174316607664
0.23895526535148653,0.0720047964099766
0.24173381494859686,0.05238272248753881
0.24451236454570716,0.08123644576122593
0.24729091414281748,0.06104592921833094
0.2500694637399278,0.03051811029297087
0.2528480133370381,0.11580929761758123
0.25562656293414837,0.1148115459210278
0.2584051125312587,0.1484766204464378
0.261183662128369,0.13830128072325473
0.26396221172547935,0.20316011164790118
0.2667407613225896,0.15731349903521946
0.26951931091969994,0.24442300319710944
0.27229786051681026,0.300595162245848
0.27507641011392053,0.32362783560545394
0.27785495971103086,0.330495958226326
0.2806335093081412,0.2884375259296352
0.2834120589052515,0.2831837446306543
0.2861906085023618,0.2766630813091613
0.2889691580994721,0.3200029538295954
0.2917477076965824,0.18120307604941988
0.2945262572936927,0.29233944978235826
0.297304806890803,0.19922088838838548
0.30008335648791334,0.14128627040249572
0.3028619060850236,0.27412866483464915
0.30564045568213394,0.13812020542863884
0.30841900527924426,0.08027125249256806
0.3111975548763546,0.12084578842966812
0.31397610447346486,0.06662019609204678
0.3167546540705752,0.046959632859980026
0.3195332036676855,0.02047297415961375
0.3223117532647958,0.03623078810511256
0.3250903028619061,-0.0008652042952931108
0.3278688524590164,0.02696661195779749
0.33064740205612675,0.105264236857955
0.333425951653237,0.014139659832403862
0.33620450125034734,-0.05122554625927376
0.33898305084745767,0.007390179571889845
0.34176160044456794,0.028657811083963217
0.34454015004167826,-0.03751774653234561
0.3473186996387886,0.07966555399827835
0.3500972492358989,-0.0007557590081717926
0.3528757988330092,0.03236451121229944
0.3556543484301195,0.04443454076665605
0.35843289802722983,-0.05096015186626982
0.3612114476243401,-0.07005015920583199
0.3639899972214504,0.02305583471697232
0.36676854681856075,0.04403354104418448
0.3695470964156711,0.07015882806170827
0.37232564601278134,-0.007163739711876113
0.37510419560989167,-0.08819247937930928
0.377882745207002,-0.019272332380325087
0.38066129480411226,-0.034498362309383905
0.3834398444012226,-0.004749740722137812
0.3862183939983329,0.03295274821767603
0.38899694359544323,0.03503259756570545
0.3917754931925535,-0.038584473757661227
0.39455404278966383,-0.10339476823714928
0.39733259238677415,-0.04526662070562207
0.4001111419838844,0.01319796081941107
0.40288969158099475,0.04608254997712847
0.40566824117810507,-0.07412063465826693
0.4084467907752154,-0.005720817588036259
0.41122534037232567,0.01796647922223539
0.414003889969436,0.04448435691795573
0.4167824395665463,0.07229057035059848
0.4195609891636566,-0.028710528320647445
0.4223395387607669,0.020517745527707534
0.42511808835787723,0.017109132743975772
0.4278966379549875,-0.04246722727428814
0.4306751875520978,-0.02014517503854123
0.43345373714920815,0.02543392087810028
0.4362322867463185,0.07494664564642485
0.43901083634342875,0.004940871631474169
0.44178938594053907,0.061837196213967154
0.4445679355376494,0.014166079782340567
0.44734648513475966,-0.07618780657944654
0.45012503473187,-0.06649603844232395
0.4529035843289803,-0.017703297129935264
0.45568213392609064,-0.008511436205836477
0.4584606835232009,-0.13336586846394968
0.46123923312031123,0.10573278620494884
0.46401778271742156,-0.03596257912233798
0.4667963323145318,0.029836181997806015
0.46957488191164215,-0.04215397539286885
0.4723534315087525,0.04354386658004293
0.4751319811058628,0.018837986774047622
0.47791053070297307,0.014303147601784609
0.4806890803000834,-0.00014675016849388672
0.4834676298971937,0.0038804940191098348
0.486246179494304,0.051737248260088416
0.4890247290914143,0.0004381383906670653
0.49180327868852464,-0.04794621156136582
0.49458182828563496,0.07021623152181229
0.49736037788274523,-0.0014965567884713254
0.5001389274798556,0.01881886928204623
0.5029174770769659,-0.07550382970263042
0.5056960266740762,-0.0033507788694191716
0.5084745762711865,-0.02132971545450536
0.5112531258682967,0.001446753697493546
0.5140316754654071,0.03819282032690218
0.5168102250625174,-0.04781385125215078
0.5195887746596277,-0.011372549507586031
0.522367324256738,0.021701252728538987
0.5251458738538484,0.08089960102060281
0.5279244234509587,-0.006556800402184999
0.5307029730480689,-0.05393373183493591
0.5334815226451792,0.09486942283296286
0.5362600722422896,0.10212438541386293
0.5390386218393999,0.07813386641516504
0.5418171714365102,0.04114634214242449
0.5445957210336205,0.027517457970727396
0.5473742706307309,-0.056145125388028766
0.5501528202278411,0.023365658036460228
0.5529313698249514,0.08651764809097238
0.5557099194220617,0.0017188930090319549
0.558488469019172,0.09054524098733471
0.5612670186162824,0.08610728713671709
0.5640455682133927,0.1985265546316728
0.566824117810503,0.15420269693169364
0.5696026674076132,0.17734248572229455
0.5723812170047236,0.2111620013578253
0.5751597666018339,0.1581411026883374
0.5779383161989442,0.09245062736729759
0.5807168657960545,0.16797701539910215
0.5834954153931649,0.1883437039760226
0.5862739649902752,0.2749286445169066
0.5890525145873854,0.21067260711246347
0.5918310641844957,0.17098965628402055
0.594609613781606,0.16595101891818262
0.5973881633787164,0.17491359339912999
0.6001667129758267,0.021652971517336993
0.602945262572937,0.030918858858116727
0.6057238121700472,0.0591393813755445
0.6085023617671576,0.016153446925417085
0.6112809113642679,0.04426830672201561
0.6140594609613782,0.17406524111827998
0.6168380105584885,0.18028914323544004
0.6196165601555989,0.35546307744357486
0.6223951097527092,0.9094926219831906
0.6251736593498194,1.0877044414736403
0.6279522089469297,1.314689830723129
0.63073075854404,1.431144137869563
0.6335093081411504,1.2223381056441633
0.6362878577382607,0.9453706014056891
0.639066407335371,0.6284464340645951
0.6418449569324813,0.37692732515308314
0.6446235065295916,0.11539526009153113
0.6474020561267019,0.24612783493657853
0.6501806057238122,-0.038137358550471054
0.6529591553209225,-0.04245530998345102
0.6557377049180328,-0.01247886666159214
0.6585162545151432,0.10167204503617201
0.6612948041122535,0.032104906599460484
0.6640733537093637,0.08070001090944831
0.666851903306474,0.004365114022663448
0.6696304529035844,-0.06719567912698504
0.6724090025006947,-0.032897505020389455
0.675187552097805,0.02030282431279306
0.6779661016949153,-0.015683772113175627
0.6807446512920257,0.04310251561916633
0.6835232008891359,0.010581810185592972
0.6863017504862462,-0.012038261413574192
0.6890803000833565,-0.011277001585282652
0.6918588496804668,-0.05939349011449588
0.6946373992775772,-0.03421534351285051
0.6974159488746875,-0.028193173942425893
0.7001944984717978,0.009504188504286588
0.702973048068908,-0.02704860815432743
0.7057515976660184,0.0352294567545437
0.7085301472631287,0.0361881815882834
0.711308696860239,0.03857303486080794
0.7140872464573493,0.040176752338586245
0.7168657960544597,-0.0024759173955824546
0.71964434565157,-0.024473619626215175
0.7224228952486802,-0.061523531329180405
0.7252014448457905,-0.09244310261744666
0.7279799944429008,0.10306037123661883
0.7307585440400112,-0.012771245378465693
0.7335370936371215,0.07211722457299943
0.7363156432342318,0.06253200928178208
0.7390941928313421,-0.06590042011575031
0.7418727424284524,-0.010355940517725933
0.7446512920255627,-0.01630580030668312
0.747429841622673,0.1155894382542818
0.7502083912197833,0.08162364006053466
0.7529869408168937,0.11459554763839339
0.755765490414004,0.06783422713268392
0.7585440400111143,0.07973718336664842
0.7613225896082245,0.21714498186035164
0.7641011392053348,0.23104957879600035
0.7668796888024452,0.26088217919839624
0.7696582383995555,0.2740434694024823
0.7724367879966658,0.3300265145352531
0.7752153375937761,0.3254266267437478
0.7779938871908865,0.31581139442416306
0.7807724367879967,0.20416962377989178
0.783550986385107,0.25322688298237767
0.7863295359822173,0.3709280025201246
0.7891080855793277,0.21392792325956
0.791886635176438,0.2567079774096708
0.7946651847735483,0.2886565043287641
0.7974437343706586,0.10371508327615891
0.8002222839677688,0.17289901655576156
0.8030008335648792,0.19998256216220056
0.8057793831619895,0.17272908947737434
0.8085579327590998,0.05859009438226914
0.8113364823562101,0.0830832699391672
0.8141150319533205,0.10704519994539756
0.8168935815504308,-0.013094124791318495
0.819672131147541,0.09031156810779006
0.8224506807446513,0.06846698645271693
0.8252292303417617,0.017663548862844474
0.828007779938872,-0.07394812839370235
0.8307863295359823,0.10825198404501994
0.8335648791330926,-0.0633104985078626
0.8363434287302028,0.030555321068492965
0.8391219783273132,0.018137430666809194
0.8419005279244235,0.032408980955944446
0.8446790775215338,0.0788193239992953
0.8474576271186441,-0.04402884900007197
0.8502361767157545,0.05681919260601745
0.8530147263128648,-0.08515025064419116
0.855793275909975,-8.720877518962164e-05
0.8585718255070853,0.012717454343435314
0.8613503751041957,0.0030923089898833695
0.864128924701306,-0.044843326227405195
0.8669074742984163,0.053412115776922356
0.8696860238955266,0.007471375225602702
0.872464573492637,0.10711616379189484
0.8752431230897472,-0.08247065875656648
0.8780216726868575,-0.011545980905887439
0.8808002222839678,-0.02213383281618537
0.8835787718810781,0.05397113952528128
0.8863573214781885,-0.015172367954533694
0.8891358710752988,0.05216584583510819
0.8919144206724091,-0.04822653726000307
0.8946929702695193,-0.05947880392339442
0.8974715198666297,0.0007159085441921922
0.90025006946374,-0.0521164743279429
0.9030286190608503,-0.010060553769170788
0.9058071686579606,-0.11591883018953665
0.908585718255071,0.01931555839486646
0.9113642678521813,0.053338368419569
0.9141428174492915,0.024284150899069046
0.9169213670464018,0.055818623002546953
0.9196999166435121,-0.031575919791519566
0.9224784662406225,-0.058130322214979296
0.9252570158377328,-0.05047650585129661
0.9280355654348431,-0.016021903266621777
0.9308141150319534,-0.04121913393567718
0.9335926646290637,-0.0538188896614595
0.936371214226174,-0.0038616014094648723
0.9391497638232843,-0.08685097250362617
0.9419283134203946,-0.09215924988812871
0.944706863017505,-0.033232903074407474
0.9474854126146153,-0.03321120405271655
0.9502639622117256,0.046246009822137224
0.9530425118088358,0.07414523870842243
0.9558210614059461,-0.0491055004369517
0.9585996110030565,-0.017735453476552063
0.9613781606001668,0.11665008325909712
0.9641567101972771,-0.05470144451534982
0.9669352597943874,-0.010769640813496259
0.9697138093914978,0.04832209082894252
0.972492358988608,-0.11994126593929128
0.9752709085857183,-0.07737142555359287
0.9780494581828286,-0.1140696001088715
0.980828007779939,0.05630758199947419
0.9836065573770493,0.003507214926483442
0.9863851069741596,-0.04720452363766995
0.9891636565712699,-0.010783316495595524
0.9919422061683801,0.027553775168630033
0.9947207557654905,0.035745157772146305
0.9974993053626008,0.0038533437655558812
1.000277854959711,-0.03947683647220273
1.0030564045568213,-0.011070499992955672
1.0058349541539318,0.01070872211195701
1.008613503751042,-0.005951103879836001
1.0113920533481524,0.09627938683419093
1.0141706029452626,0.026593133035964642
1.016949152542373,0.007881656801650634
1.0197277021394833,0.14928493794764996
1.0225062517365935,-0.038897879526149294
1.025284801333704,0.01847646856400674
1.0280633509308141,0.10295254726099949
1.0308419005279246,-0.05296210613674677
1.0336204501250348,0.054812316964987055
1.0363989997221452,0.05326819478716183
1.0391775493192554,0.06664573273414824
1.0419560989163656,-0.00548803008543774
1.044734648513476,0.06740096168826186
1.0475131981105863,0.008878931543047964
1.0502917477076967,0.06120588155791659
1.053070297304807,-0.09176183574020172
1.0558488469019174,-0.009224734870941963
1.0586273964990276,0.09610685033339529
1.0614059460961378,0.11998919785464503
1.0641844956932482,0.1352828394108527
1.0669630452903585,0.14218294958995636
1.069741594887469,0.16932830275853245
1.072520144484579,0.21994268367502554
1.0752986940816895,0.14639403198266576
1.0780772436787998,0.19782191278333797
1.08085579327591,0.13970839459603504
1.0836343428730204,0.20423057704969957
1.0864128924701306,0.19430809751366226
1.089191442067241,0.11223961246470503
1.0919699916643513,0.23955846659638497
1.0947485412614617,0.07956505123255495
1.097527090858572,0.1143905695891353
1.1003056404556821,0.13600956510476137
1.1030841900527926,0.07602860880433959
1.1058627396499028,0.07652640841978481
1.1086412892470132,-0.00580637382034023
1.1114198388441234,0.04849581452701582
1.1141983884412339,0.20119578227153934
1.116976938038344,0.2082768824066057
1.1197554876354543,0.5110949732782984
1.1225340372325647,0.778000552880895
1.125312586829675,1.0931278435492784
1.1280911364267854,1.2768854544087742
1.1308696860238956,1.394992083080388
1.133648235621006,1.1929529668292482
1.1364267852181162,0.9525483131471335
1.1392053348152265,0.6192554654234138
1.141983884412337,0.3826233345563251
1.144762434009447,0.12144624335044328
1.1475409836065575,0.12617168830783493
1.1503195332036678,0.046200022016166846
1.1530980828007782,-0.02127414811434688
1.1558766323978884,-0.02348006506926595
1.1586551819949986,-0.01980100419532885
1.161433731592109,0.016128843522871545
1.1642122811892193,0.07205005202557956
1.1669908307863297,0.06410450647806118
1.16976938038344,0.011290856411714277
1.1725479299805504,-0.05011924325793932
1.1753264795776606,-0.05077795996571967
1.1781050291747708,0.018650608703193714
1.1808835787718812,-0.05128534519603135
1.1836621283689914,0.06252580503236031
1.1864406779661019,-0.14153081210084661
1.189219227563212,0.016022449940251628
1.1919977771603223,-0.08972090689201691
1.1947763267574327,0.05153443407198712
1.197554876354543,0.042837722060878124
1.2003334259516534,-0.03159875893802379
1.2031119755487636,0.02148326586579326
1.205890525145874,0.11007856016512978
1.2086690747429842,-0.03145270516206508
1.2114476243400945,-0.035647944613657744
1.214226173937205,-0.015347484530406994
1.217004723534315,-0.028934441560263348
1.2197832731314255,-0.08371612485128083
1.2225618227285358,0.023734183075827267
1.2253403723256462,-0.03884048016672284
1.2281189219227564,0.03063054293952361
1.2308974715198666,0.09481845782955489
1.233676021116977,-0.03344408758929167
1.2364545707140873,0.10173213037006698
1.2392331203111977,-0.0012048589342251864
1.242011669908308,0.06303363671375717
1.2447902195054183,0.06992171669504081
1.2475687691025286,0.03995571273333975
1.2503473186996388,0.11394963808752533
1.2531258682967492,0.20607920835121846
1.2559044178938594,0.18155361346513588
1.2586829674909699,0.17116286727649915
1.26146151708808,0.13171962217558716
1.2642400666851905,0.1566948253889948
1.2670186162823007,0.2650493458388305
1.269797165879411,0.33207762530343865
1.2725757154765214,0.2587312485802249
1.2753542650736316,0.23254594826463104
1.278132814670742,0.25921858735536885
1.2809113642678522,0.3163794362267992
1.2836899138649627,0.352261735075458
1.2864684634620729,0.2582105538524451
1.289247013059183,0.2362813629442838
1.2920255626562935,0.29821057254652883
1.2948041122534037,0.25166344418204134
1.2975826618505142,0.17707414560629492
1.3003612114476244,0.2568719290321284
1.3031397610447348,0.1762187134799523
1.305918310641845,0.1178099287481933
1.3086968602389553,0.05124035539690161
1.3114754098360657,0.0545394908010502
1.314253959433176,0.025708521278271487
1.3170325090302863,0.0010131747142830758
1.3198110586273966,0.0037575067121682834
1.322589608224507,-0.0004576345085211195
1.3253681578216172,-0.022491677392982155
1.3281467074187274,-0.01930380360108486
1.3309252570158379,0.04725180609954159
1.333703806612948,-0.010713172814159792
1.3364823562100585,0.009484857239372244
1.3392609058071687,0.033081659232579184
1.3420394554042792,0.022083741763423023
1.3448180050013894,0.022130761854647202
1.3475965545984996,0.013623515842912838
1.35037510419561,0.024692720349034705
1.3531536537927202,-0.003665594968612302
1.3559322033898307,-0.028946076009131752
1.3587107529869409,-0.020225858795102077
1.3614893025840513,0.07845558252956378
1.3642678521811615,0.046886436126848535
1.3670464017782717,0.05025327721425454
1.3698249513753822,-0.0218410950324335
1.3726035009724924,0.053466382410232556
1.3753820505696028,-0.04475332060354513
1.378160600166713,-0.09684625754448896
1.3809391497638235,0.061976511611405244
1.3837176993609337,-0.0053315359602932495
1.386496248958044,0.02151226389451539
1.3892747985551543,0.009106622971726814
1.3920533481522646,-0.036578446010500816
1.394831897749375,-0.028594050638603707
1.3976104473464852,-0.07028110010821116
1.4003889969435956,0.02311401071896186
1.4031675465407059,-0.02945455956335212
1.405946096137816,-0.010675887883497116
1.4087246457349265,-0.012531477610747507
1.4115031953320367,-0.04665941963140271
1.4142817449291472,-0.0340514092718378
1.4170602945262574,0.08315416342758039
1.4198388441233678,-0.013872109954453784
1.422617393720478,-0.12141429127112184
1.4253959433175882,0.034059494172519515
1.4281744929146987,2.2922818416447742e-05
1.4309530425118089,0.07028348936306389
1.4337315921089193,-0.000481253729477216
1.4365101417060295,0.09407464787793152
1.43928869130314,-0.021098288154867088
1.4420672409002502,-0.13148327362484555
1.4448457904973604,-0.04376113556692418
1.4476243400944708,-0.031476160814960456
1.450402889691581,-0.04694511830964135
1.4531814392886915,-0.05957661895706874
1.4559599888858017,-0.037679295126508
1.4587385384829121,0.02843201563984624
1.4615170880800223,-0.07916878282855616
1.4642956376771326,0.009131601052997191
1.467074187274243,-0.08457744767062729
1.4698527368713532,-0.037988003170172306
1.4726312864684636,-0.022179882142746913
1.4754098360655739,0.007381962068005905
1.4781883856626843,-7.739461580172064e-05
1.4809669352597945,-0.0009031537952173724
1.4837454848569047,-0.08083765206067778
1.4865240344540152,0.01994334657371307
1.4893025840511254,0.031192635827257616
1.4920811336482358,0.020720212334823376
1.494859683245346,0.017284840965080785
1.4976382328424565,-0.004119686665511301
1.5004167824395667,-0.07602867118293681
1.5031953320366769,0.05635131155186127
1.5059738816337873,-0.012979632572444267
1.5087524312308975,-0.08147921662252335
1.511530980828008,0.04905746310728328
1.5143095304251182,0.04904622371242678
1.5170880800222286,0.03531559986620621
1.5198666296193388,0.048572373963689304
1.522645179216449,0.015880200066984665
1.5254237288135595,-0.004920947092664685
1.5282022784106697,-0.00336307462426043
1.5309808280077801,0.05187340696619898
1.5337593776048903,-0.009432233378570609
1.5365379272020008,0.05952518057434651
1.539316476799111,-0.021514349669735127
1.5420950263962212,-0.01403635040608741
1.5448735759933316,0.048001031342787076
1.5476521255904419,-0.02559650359851225
1.5504306751875523,-0.005806740514403514
1.5532092247846625,0.010169294101871295
1.555987774381773,-0.04271322456369005
1.5587663239788832,0.02822701579849176
1.5615448735759934,0.10590827011580628
1.5643234231731038,-0.035486974983784406
1.567101972770214,0.21741512561054752
1.5698805223673244,0.1341059782511797
1.5726590719644347,0.19606568628180557
1.575437621561545,0.18678195278731
1.5782161711586553,0.31069212666436824
1.5809947207557655,0.17014273194475144
1.583773270352876,0.2908535183500469
1.5865518199499862,0.14143760158348645
1.5893303695470966,0.1873495321422811
1.5921089191442068,0.08927731695342353
1.5948874687413173,0.2483464433753318
1.5976660183384275,0.14043609073009675
1.6004445679355377,0.07646096045956106
1.6032231175326481,0.019847175093751883
1.6060016671297583,0.06975840209865693
1.6087802167268688,0.03894787612458035
1.611558766323979,0.1197765200590406
1.6143373159210894,0.15313090286374714
1.6171158655181996,0.25794908533520056
1.6198944151153098,0.5032797159784751
1.6226729647124203,0.7777976784746721
1.6254515143095305,1.0582656966955706
1.628230063906641,1.4440485958244453
1.6310086135037511,1.36652988450076
1.6337871631008616,1.3197312701369488
1.6365657126979718,0.9032079719065673
1.639344262295082,0.614141291779863
1.6421228118921924,0.33868496878308446
1.6449013614893027,0.13552960874928338
1.647679911086413,0.09477893223594797
1.6504584606835233,0.0066737885548999645
1.6532370102806337,-0.045478488834063996
1.656015559877744,0.0035773973959858647
1.6587941094748542,0.047381987431192304
1.6615726590719646,0.08084454000767322
1.6643512086690748,0.015253281318202893
1.6671297582661853,-0.025534534262346316
1.6699083078632955,-0.07197419501857949
1.6726868574604057,-0.025562248013676944
1.6754654070575161,-0.06754950059531917
1.6782439566546263,-0.032234504117978444
1.6810225062517368,0.005472120481920758
1.683801055848847,-0.05732203172635106
1.6865796054459574,-0.022405841277851342
1.6893581550430676,-0.04315817702485581
1.6921367046401778,0.040427119958720385
1.6949152542372883,-0.032002504069243334
1.6976938038343985,-0.03390271673160188
1.700472353431509,-0.08600077510931818
1.7032509030286191,0.04138890742152852
1.7060294526257296,0.040621229808435674
1.7088080022228398,0.08904238967209663
1.71158655181995,0.03012539906995632
1.7143651014170604,-0.08172764170693483
1.7171436510141707,-0.048461829723048064
1.719922200611281,0.02458209860118775
1.7227007502083913,-0.03779699091067008
1.7254792998055017,0.02147941062440087
1.728257849402612,-0.02925795529271514
1.7310363989997222,-0.04348562927357246
1.7338149485968326,0.0747398810530616
1.7365934981939428,0.06164916577536592
1.7393720477910533,0.09099896925783398
1.7421505973881635,0.04336434683225928
1.744929146985274,0.15422337862310925
1.7477076965823841,0.11326077210733076
1.7504862461794943,0.04330680021511837
1.7532647957766048,0.11030052591521593
1.756043345373715,0.14960893860158625
1.7588218949708254,0.14800853222219196
1.7616004445679356,0.21418068980892757
1.764378994165046,0.2796330259813324
1.7671575437621563,0.21269010499206975
1.7699360933592665,0.18107824685913326
1.772714642956377,0.20888471921694585
1.7754931925534871,0.2836574128421351
1.7782717421505976,0.29795065841455187
1.7810502917477078,0.31676314537176925
1.7838288413448182,0.2215330141858478
1.7866073909419284,0.31981085702185086
1.7893859405390387,0.29298282122385627
1.792164490136149,0.3155762605943926
1.7949430397332593,0.19139688325664092
1.7977215893303697,0.277950161693703
1.80050013892748,0.19001657080799006
1.8032786885245904,0.1359889057087876
1.8060572381217006,0.17479327422622964
1.8088357877188108,0.10475543698720208
1.8116143373159213,0.13301710080210993
1.8143928869130315,0.11682896805045903
1.817171436510142,0.00958363837270651
1.8199499861072521,0.07381654798541754
1.8227285357043626,0.130138838254398
1.8255070853014728,0.0024356403656912926
1.828285634898583,-0.038621595135625235
1.8310641844956934,-0.011181416657683619
1.8338427340928036,0.035365855941245604
1.836621283689914,0.06235031621309992
1.8393998332870243,-0.060704635132357146
1.8421783828841347,0.08775967555043221
1.844956932481245,-0.0346450038752242
1.8477354820783551,0.07431694867240893
1.8505140316754656,-0.01350747605581759
1.8532925812725758,-0.004749101769755147
1.8560711308696862,-0.0024902609185904487
1.8588496804667964,0.07909961520809572
1.8616282300639069,-0.03723859468613242
1.864406779661017,-0.017107806081801385
1.8671853292581273,0.003436820535309749
1.8699638788552377,0.09735263170813181
1.872742428452348,-0.0470704551386762
1.8755209780494584,-0.025792955195765077
1.8782995276465686,-0.03851077752920477
1.881078077243679,0.011010080488275268
1.8838566268407893,0.029084749130187652
1.8866351764378995,-0.021888024491078163
1.88941372603501,-0.08990991181067286
1.8921922756321201,-0.012243831288692004
1.8949708252292305,-0.027390947266562812
1.8977493748263408,0.04461107215876494
1.9005279244234512,-0.053137302814324563
1.9033064740205614,0.024597796881137567
1.9060850236176716,0.036327489305368506
1.908863573214782,0.009546629746728178
1.9116421228118923,0.04082210104782509
1.9144206724090027,0.009644527905308063
1.917199222006113,-0.02861426486549589
1.9199777716032234,0.06784448510156134
1.9227563212003336,0.06898795804097076
1.9255348707974438,-0.014236441750530866
1.9283134203945542,-0.018085934677684656
1.9310919699916644,-0.026921901612459234
1.9338705195887749,0.0037016957233021123
1.936649069185885,-0.025965726228472603
1.9394276187829955,0.03612355866520294
1.9422061683801057,-0.0147430127369171
1.944984717977216,0.006673543712119661
1.9477632675743264,-0.0312929547954943
1.9505418171714366,-0.04176800257073655
1.953320366768547,0.04948400274194781
1.9560989163656572,0.0011947909854093228
1.9588774659627677,-0.016105596488235053
1.961656015559878,-0.04633600001379361
1.964434565156988,-0.025744454715018975
1.9672131147540985,-0.026227338321614096
1.9699916643512088,0.08003360679610676
1.9727702139483192,0.0018426027215806633
1.9755487635454294,0.10325617402975347
1.9783273131425398,-0.02893030620210571
1.98110586273965,0.047628418429006975
1.9838844123367603,-0.11192733074175792
1.9866629619338707,0.05436031608153411
1.989441511530981,0.026882926665959716
1.9922200611280914,-0.06819642160049355
1.9949986107252016,0.039952494858510164
1.997777160322312,0.06078497446644176
2.000555709919422,-0.017838697860338645
2.0033342595165324,-0.01166035478006292
2.0061128091136426,-0.07876493732536939
2.0088913587107533,0.020381252871067228
2.0116699083078635,-0.01214876315254701
2.0144484579049737,0.10497658500617983
2.017227007502084,-0.011872745963563266
2.020005557099194,0.0062472736880202166
2.022784106696305,-0.025295434509079492
2.025562656293415,0.0017259943225870352
2.0283412058905252,0.027211056822941112
2.0311197554876355,0.014266349367976461
2.033898305084746,-0.11967533950144826
2.0366768546818563,0.024840213380644717
2.0394554042789665,-0.02670137025129678
2.0422339538760768,-0.01419267302874443
2.045012503473187,0.02434401389286181
2.0477910530702976,0.021141155950737973
2.050569602667408,-0.03241966324123266
2.053348152264518,0.01451256060164785
2.0561267018616283,0.07003024074729641
2.0589052514587385,0.059855159032946685
2.061683801055849,0.056869358015007115
2.0644623506529594,0.19005179164488162
2.0672409002500696,0.09234171676715955
2.07001944984718,0.22579443324625925
2.0727979994442904,0.2503774740318948
2.0755765490414007,0.35283683631718177
2.078355098638511,0.21414219622679337
2.081133648235621,0.21997249436153665
2.0839121978327313,0.14574935483684062
2.086690747429842,0.2173770622603393
2.089469297026952,0.07520282939496113
2.0922478466240624,0.13592551365427297
2.0950263962211726,0.061202871688796096
2.097804945818283,0.013927255543539824
2.1005834954153935,0.07827255913755121
2.1033620450125037,0.08360610072440278
2.106140594609614,0.10914037979260674
2.108919144206724,0.03310530953848255
2.1116976938038348,-0.019773769440597805
2.114476243400945,0.15039161489309694
2.117254792998055,0.3532653463572713
2.1200333425951654,0.5076452317321299
2.1228118921922756,0.8535716937939735
2.1255904417893863,1.2104918710781394
2.1283689913864965,1.4213194111844643
2.1311475409836067,1.3856813669675379
2.133926090580717,1.216819844120789
2.136704640177827,0.9322276387524661
2.139483189774938,0.5028183692934003
2.142261739372048,0.3095529641431087
2.145040288969158,0.14286661142752155
2.1478188385662684,0.026610393679787334
2.150597388163379,0.028996537163699425
2.1533759377604893,0.03159067626111551
2.1561544873575995,0.015217617488256691
2.1589330369547097,0.0013433520759669982
2.16171158655182,-0.0013910981981038976
2.1644901361489306,0.014394139814140687
2.167268685746041,-0.02869032150831725
2.170047235343151,0.019238445701596666
2.1728257849402612,-0.06761601222714105
2.1756043345373715,-0.06817825599175302
2.178382884134482,-0.012755251526991411
2.1811614337315923,0.05970577877588669
2.1839399833287025,-0.023680951375335924
2.1867185329258128,0.01647487928312054
2.1894970825229234,-0.022617598912552925
2.1922756321200336,0.03975458820306545
2.195054181717144,0.0200743961345144
2.197832731314254,0.027307593644871814
2.2006112809113643,-0.05109540932031115
2.203389830508475,0.04243473493570448
2.206168380105585,0.04605963165995318
2.2089469297026953,-0.06263859008565498
2.2117254792998056,0.09516173944501499
2.2145040288969158,-0.09002459598901673
2.2172825784940264,-0.037899844450360216
2.2200611280911366,0.018348164364893317
2.222839677688247,-0.04194084091421509
2.225618227285357,0.04606557249630334
2.2283967768824677,0.012283374322420932
2.231175326479578,-0.052706153824565866
2.233953876076688,-0.05301256448534146
2.2367324256737984,0.06300564632085726
2.2395109752709086,0.037119588467707076
2.2422895248680192,0.07009155277824072
2.2450680744651295,0.06538299506767438
2.2478466240622397,0.1096226913600561
2.25062517365935,0.13952291355402482
2.25340372325646,0.14317119410283213
2.2561822728535708,0.12415734794666794
2.258960822450681,0.205961397218308
2.261739372047791,0.1955948884045697
2.2645179216449014,0.2235998678234717
2.267296471242012,0.28183288736225687
2.2700750208391223,0.25637563818984177
2.2728535704362325,0.2975632316977561
2.2756321200333427,0.36995798186628037
2.278410669630453,0.3433203438107963
2.2811892192275636,0.20275524468124365
2.283967768824674,0.3239292568674191
2.286746318421784,0.2340137058759155
2.289524868018894,0.37179753346419636
2.2923034176160044,0.23848880225667654
2.295081967213115,0.19783280356767163
2.2978605168102253,0.23168736465749673
2.3006390664073355,0.23591204608260563
2.3034176160044457,0.18676546576967648
2.3061961656015564,0.18590135253393214
2.3089747151986666,0.06087484851583878
2.311753264795777,0.033281838069486556
2.314531814392887,0.1621948569653061
2.3173103639899972,0.1066654831988328
2.320088913587108,-0.011689255690262745
2.322867463184218,0.10700791964121148
2.3256460127813283,0.010925917070828866
2.3284245623784385,-0.0011402774328628275
2.3312031119755487,-0.0034624536730675105
2.3339816615726594,-0.06323131433269774
2.3367602111697696,-0.04813522587369593
2.33953876076688,0.004882157135952015
2.34231731036399,0.03414568118498374
2.3450958599611007,0.05411441127076443
2.347874409558211,-0.008534502281866358
2.350652959155321,-0.058048639426452456
2.3534315087524313,-0.014096455654846308
2.3562100583495416,0.06115634770888908
2.358988607946652,0.0017238467174310655
2.3617671575437624,0.05717764644944006
2.3645457071408726,0.009687208190572607
2.367324256737983,0.05648433308208118
2.370102806335093,-0.033040820820441144
2.3728813559322037,-0.05153661787950618
2.375659905529314,0.03947262213517487
2.378438455126424,-0.04366574291531634
2.3812170047235344,-0.003547953538256334
2.3839955543206446,-0.11642220524624708
2.3867741039177552,0.0021059868989750895
2.3895526535148655,-0.0997261271198773
2.3923312031119757,0.07099651658047168
2.395109752709086,-0.002453045886148883
2.3978883023061965,-0.03349124103969532
2.4006668519033068,0.03182111860881105
2.403445401500417,-0.08697400663388033
2.406223951097527,-0.011015268711073669
2.4090025006946374,0.06238962180604827
2.411781050291748,-0.08630933377679044
2.4145595998888583,0.036196479207294206
2.4173381494859685,-0.03653258293217204
2.4201166990830787,0.0066735422429651066
2.422895248680189,-0.0559380972818638
2.4256737982772996,-0.010716568778770506
2.42845234787441,0.12046660030972953
2.43123089747152,0.04842475421011283
2.43400944706863,0.02233495583376905
2.436787996665741,0.02145302001220812
2.439566546262851,-0.08465057544075735
2.4423450958599613,-0.03086313869203706
2.4451236454570715,-0.10608185308016024
2.4479021950541817,-0.020843985094970915
2.4506807446512924,-0.0513088566239238
2.4534592942484026,0.030442270992435724
2.456237843845513,-0.019966524601066397
2.459016393442623,-0.11360924344090947
2.4617949430397332,-0.1439185989686582
2.464573492636844,0.0025442641479187927
2.467352042233954,0.08644105147375035
2.4701305918310643,-0.021616854313108478
2.4729091414281745,-0.03384818909349711
2.475687691025285,0.08054999482703638
2.4784662406223954,0.07523012807434158
2.4812447902195056,0.020563018318064626
2.484023339816616,0.007443552691456085
2.486801889413726,0.026663814221710068
2.4895804390108367,0.04635987017442112
2.492358988607947,-0.039969076418406295
2.495137538205057,0.1193736626515134
2.4979160878021673,0.026828644239203635
2.5006946373992776,-0.041775614795839265
2.503473186996388,-0.023420185335399912
2.5062517365934984,-0.09572750073027059
2.5090302861906086,-0.057817400130842085
2.511808835787719,-0.05237613970564775
2.5145873853848295,0.06706397341172755
2.5173659349819397,0.04481689363110885
2.52014448457905,-0.019205038994490952
2.52292303417616,-0.04785525894327968
2.5257015837732704,-0.10529543024974988
2.528480133370381,0.04406854653999669
2.5312586829674912,0.02498463659090009
2.5340372325646014,-0.017254146735079485
2.5368157821617117,0.05579392864477925
2.539594331758822,0.0564215681365555
2.5423728813559325,0.04141340148578396
2.5451514309530427,0.045116565481819165
2.547929980550153,0.020346339650340044
2.550708530147263,0.1174202653350527
2.553487079744374,0.05669114548345986
2.556265629341484,0.087452863620797
2.5590441789385943,0.060622805797838936
2.5618227285357045,0.1423073284376611
2.5646012781328147,0.1520500722726807
2.5673798277299253,0.16205356059390735
2.5701583773270356,0.13195112385333232
2.5729369269241458,0.1649718172339476
2.575715476521256,0.19696882536372362
2.578494026118366,0.18526240595768753
2.581272575715477,0.19003321320487626
2.584051125312587,0.3348595376135759
2.5868296749096973,0.15030639546966967
2.5896082245068075,0.17910566762244026
2.592386774103918,0.1004214978280477
2.5951653237010284,0.06918529075130891
2.5979438732981386,0.04277495490686235
2.600722422895249,-0.02189327087494687
2.603500972492359,0.03939733608369997
2.6062795220894697,0.09000448218450216
2.60905807168658,0.004659994480040654
2.61183662128369,0.022738615777699082
2.6146151708808003,0.182196311867635
2.6173937204779105,0.33975968511812726
2.620172270075021,0.5238414963871194
2.6229508196721314,0.9574498862543248
2.6257293692692416,1.1630161776994523
2.628507918866352,1.2782714628566934
2.6312864684634625,1.39956050806775
2.6340650180605727,1.2927218145811807
2.636843567657683,0.8148395796485599
2.639622117254793,0.5904034348528568
2.6424006668519033,0.3162282810698034
2.645179216449014,0.19735250428757561
2.647957766046124,-0.0651593894140286
2.6507363156432344,0.012433912813260204
2.6535148652403446,-0.08789380640631789
2.656293414837455,0.04290431080989912
2.6590719644345655,0.0131450371005514
2.6618505140316757,0.026998956898162292
2.664629063628786,0.09085865476350403
2.667407613225896,-0.014649178253381677
2.670186162823007,0.03677632543341208
2.672964712420117,-0.07332606396405542
2.6757432620172272,-0.06470270598836829
2.6785218116143374,-0.006990246658058052
2.6813003612114477,0.07414021721828586
2.6840789108085583,-0.010110243216714882
2.6868574604056685,0.05637164816675383
2.6896360100027787,0.05000326916431247
2.692414559599889,0.0017029144493134615
2.695193109196999,-0.08683246737001236
2.69797165879411,-0.0029143799823854277
2.70075020839122,-0.0029780619214535386
2.7035287579883303,-0.04076305930436914
2.7063073075854405,0.04342449404024873
2.709085857182551,-0.004294688030435019
2.7118644067796613,0.04098501323620563
2.7146429563767716,0.04673871968593953
2.7174215059738818,0.12123030620449032
2.720200055570992,0.10911851729926197
2.7229786051681026,-0.10114223595849825
2.725757154765213,0.022103781792055455
2.728535704362323,-0.050405450387450486
2.7313142539594333,-0.021219019857810363
2.7340928035565435,0.01897316617940461
2.736871353153654,0.036812627829192146
2.7396499027507644,0.10461909183422621
2.7424284523478746,0.09512286829804063
2.745207001944985,0.058720312831446395
2.7479855515420955,0.08368231027715337
2.7507641011392057,0.061475784735610044
2.753542650736316,0.2074152560031399
2.756321200333426,0.10716106805832323
2.7590997499305363,0.23134501939739632
2.761878299527647,0.1567465255002321
2.764656849124757,0.14013107089786203
2.7674353987218674,0.32620417040613137
2.7702139483189776,0.1431822305038411
2.772992497916088,0.2499497897752338
2.7757710475131985,0.26367690758659645
2.7785495971103087,0.28354988623593214
2.781328146707419,0.27224414297854893
2.784106696304529,0.28317878764655224
2.7868852459016398,0.3852655030822775
2.78966379549875,0.2939710546306619
2.79244234509586,0.2686340998482183
2.7952208946929704,0.10071322605848322
2.7979994442900806,0.26939283746240655
2.8007779938871913,0.1916650854000402
2.8035565434843015,0.1314916650017603
2.8063350930814117,0.076011541853794
2.809113642678522,0.12158551937508487
2.811892192275632,0.15516180346512604
2.814670741872743,0.057211124036164025
2.817449291469853,0.047318383489285576
2.8202278410669632,0.028680525110588054
2.8230063906640734,0.020751711091135158
2.825784940261184,-0.01699575575981511
2.8285634898582943,-0.007120324868103777
2.8313420394554045,-0.13115065096701395
2.8341205890525147,-0.06651239039668354
2.836899138649625,-0.009192250336535129
2.8396776882467356,0.033762343920542844
2.842456237843846,-0.00992481571788005
2.845234787440956,-0.004626042619380778
2.8480133370380663,-0.038366029660570886
2.8507918866351765,-0.03331368163098335
2.853570436232287,-0.02405529032330751
2.8563489858293973,-0.007741021169526425
2.8591275354265075,-0.010059247058152846
2.8619060850236178,0.015541530168079801
2.864684634620728,0.034964736434752806
2.8674631842178386,0.05746524831063241
2.870241733814949,-0.03858629811570835
2.873020283412059,-0.08995642220876404
2.8757988330091693,-0.02834677587064277
2.87857738260628,0.03535374545751806
2.88135593220339,0.09435006502044825
2.8841344818005004,0.08588615404332894
2.8869130313976106,0.04985391305307819
2.889691580994721,-0.04529583302331215
2.8924701305918314,-0.06084607605705023
2.8952486801889417,0.03674305955257599
2.898027229786052,-0.004782615181139068
2.900805779383162,0.04923922730664694
2.9035843289802723,0.0020471907025792348
2.906362878577383,-0.13302019360576356
2.909141428174493,0.0008485173979603457
2.9119199777716034,0.03474236705442042
2.9146985273687136,0.048161784760257835
2.9174770769658243,0.016654215346455788
2.9202556265629345,0.02823229508590935
2.9230341761600447,0.04676298206600019
2.925812725757155,0.05167835511400145
2.928591275354265,-0.06845497156340867
2.9313698249513758,0.05510293397429513
2.934148374548486,0.0068467685137672376
2.936926924145596,0.011572532047885234
2.9397054737427064,0.048758981594681776
2.9424840233398166,-0.033424017800753096
2.9452625729369273,-0.08877682232761935
2.9480411225340375,0.0240619875890506
2.9508196721311477,-0.0610482294191687
2.953598221728258,0.029714812996526473
2.9563767713253686,-0.0010788890267070979
2.959155320922479,0.008202188073233634
2.961933870519589,-0.04656577659222274
2.964712420116699,0.0034259890857462577
2.9674909697138094,-0.025938310765713325
2.97026951931092,0.06395101524048141
2.9730480689080303,-0.0339686297879487
2.9758266185051405,0.009656491031254504
2.9786051681022507,-0.04767737556316367
2.981383717699361,0.07276158621386322
2.9841622672964716,0.046282926040093174
2.986940816893582,-0.01664958127012639
2.989719366490692,0.018060888302927795
2.9924979160878022,0.02356512399696203
2.995276465684913,0.0035898683768410006
2.998055015282023,-0.0003049346478565106
3.0008335648791333,-0.01612713368288101
3.0036121144762435,-0.03548235889404331
3.0063906640733538,0.03775205991087223
3.0091692136704644,7.281453056639867e-05
3.0119477632675746,0.04931794055072583
3.014726312864685,-0.03167816998539614
3.017504862461795,0.11032447355487758
3.0202834120589053,-0.07590624540332855
3.023061961656016,0.02919056274531048
3.025840511253126,0.011294923218908032
3.0286190608502364,-0.004106853935549985
3.0313976104473466,0.017310377066370418
3.0341761600444572,-0.043019147138951816
3.0369547096415674,0.019404706330019998
3.0397332592386777,-0.013585522993306596
3.042511808835788,0.02658967179070379
3.045290358432898,0.05545956599712591
3.0480689080300087,0.055132931775364255
3.050847457627119,0.09435388858479465
3.053626007224229,0.013147638301204523
3.0564045568213394,-0.01885758304668448
3.0591831064184496,0.020045267679996516
3.0619616560155603,0.15397856887742922
3.0647402056126705,0.08169773842305807
3.0675187552097807,0.13020341988115208
3.070297304806891,0.21376408980079414
3.0730758544040016,0.09065012759483214
3.0758544040011118,0.20178234908899456
3.078632953598222,0.12098521076788936
3.081411503195332,0.20779315167056248
3.0841900527924424,0.19396780804059974
3.086968602389553,0.06926780463780993
3.0897471519866633,0.12077708178244509
3.0925257015837735,0.23266985561468728
3.0953042511808837,0.10600764846327868
3.098082800777994,0.030546477807622194
3.1008613503751046,0.04763568301068767
3.103639899972215,0.039545984626683225
3.106418449569325,-0.06382428050080796
3.109196999166435,-0.010991388228395065
3.111975548763546,0.0700093058956498
3.114754098360656,0.14648281978623104
3.1175326479577663,0.25152401046560463
3.1203111975548765,0.5358024480706642
3.1230897471519867,0.8838491895181599
3.1258682967490974,1.206482986810385
3.1286468463462076,1.3613047059854957
3.131425395943318,1.3336013160664473
3.134203945540428,1.105599199060862
3.1369824951375382,0.9588426194182105
3.139761044734649,0.5132503096754809
3.142539594331759,0.2094618112919502
3.1453181439288693,0.13931442089825025
3.1480966935259795,0.015981097481867892
3.15087524312309,0.049535041724028575
3.1536537927202004,-0.010335437078849728
3.1564323423173106,-0.09358661252405474
3.159210891914421,-0.02591713990452861
3.161989441511531,-0.03219065789081436
3.1647679911086417,-0.0404161646710885
3.167546540705752,-0.015517423479919261
3.170325090302862,0.09100124182697417
3.1731036398999724,-0.061652618577330516
3.1758821894970826,0.06423261256484947
3.178660739094193,-0.003962101890843097
3.1814392886913034,-0.029451119731428572
3.1842178382884136,-0.005144379390971967
3.186996387885524,-0.06017151913838922
3.1897749374826345,0.018456338896353966
3.1925534870797447,-0.09970954391706784
3.195332036676855,0.0153237633942535
3.198110586273965,-0.08992493557174869
3.2008891358710754,0.08394748720462258
3.203667685468186,-0.05028434088560713
3.2064462350652962,-0.03913094181562769
3.2092247846624065,0.004184306432191897
3.2120033342595167,0.002765345065728392
3.214781883856627,-0.03598157726356623
3.2175604334537375,0.06139153499502686
3.2203389830508478,0.024426097820415948
3.223117532647958,-0.0022046316642290965
3.225896082245068,0.03560476328573946
3.228674631842179,-0.11542351593048397
3.231453181439289,0.022898635273596372
3.2342317310363993,0.06495565347016738
3.2370102806335095,-0.02175522511360673
3.2397888302306197,0.05610713587451417
3.2425673798277304,0.07356641510625564
3.2453459294248406,0.02976820768889743
3.248124479021951,0.023970350791884892
3.250903028619061,0.008723068941852916
3.253681578216171,0.11151465774575946
3.256460127813282,0.1504475601518778
3.259238677410392,0.16208797066193129
3.2620172270075023,0.24886295645522724
3.2647957766046125,0.1755575258637229
3.267574326201723,0.1651331804881473
3.2703528757988334,0.2091681872944818
3.2731314253959436,0.32418673779196944
3.275909974993054,0.29062767545156426
3.278688524590164,0.27202773026925103
3.2814670741872747,0.35709823965910514
3.284245623784385,0.20164214068388284
3.287024173381495,0.3115257339392324
3.2898027229786053,0.2914451006906134
3.2925812725757155,0.1768179206457698
3.295359822172826,0.24376413447620768
3.2981383717699364,0.28356385757412783
3.3009169213670466,0.14754707712703455
3.303695470964157,0.06269309611428768
3.3064740205612675,0.13454482504380597
3.3092525701583777,0.0711335228058363
3.312031119755488,0.06153279259145796
3.314809669352598,0.024828079629450037
3.3175882189497083,0.06563319392371286
3.320366768546819,0.007877519448265181
3.323145318143929,0.0379201081133776
3.3259238677410394,0.11481001564977596
3.3287024173381496,0.022007099476311465
3.33148096693526,0.014129014744857152
3.3342595165323705,0.0939676246610933
3.3370380661294807,0.015637883557312653
3.339816615726591,-0.07830248953544978
3.342595165323701,0.041344387062207034
3.3453737149208114,-0.029279578622164872
3.348152264517922,-0.052752576125993975
3.3509308141150322,0.015075072269892407
3.3537093637121425,-0.033306512151283794
3.3564879133092527,-0.05503641301097213
3.3592664629063633,0.03384181481073856
3.3620450125034735,0.07240807948175777
3.3648235621005838,-0.010081354167094362
3.367602111697694,0.03424039302510386
3.370380661294804,0.029881319231543656
3.373159210891915,-0.09576385299398975
3.375937760489025,-0.012609310842499217
3.3787163100861353,-0.07469953578703398
3.3814948596832455,-0.09126411799164266
3.3842734092803557,-0.02101287522014031
3.3870519588774664,-0.10426104880715137
3.3898305084745766,-0.039617703082818354
3.392609058071687,-0.015613187781625711
3.395387607668797,-0.02971262976596213
3.3981661572659076,0.0480681881421742
3.400944706863018,-0.07825968527664369
3.403723256460128,0.10827084008887597
3.4065018060572383,-0.014213289299538745
3.4092803556543485,0.00074085106636034
3.412058905251459,-0.008860570456251087
3.4148374548485694,-0.019636692545322337
3.4176160044456796,0.007876295007783234
3.42039455404279,-0.05886587924674454
3.4231731036399,-0.0012491757368320259
3.4259516532370107,0.055613326941404355
3.428730202834121,0.06739612173820844
3.431508752431231,-0.06569077096267095
3.4342873020283413,-0.06090051176081368
3.437065851625452,-0.10073023861703212
3.439844401222562,0.04415482916976907
3.4426229508196724,0.039894313532329174
3.4454015004167826,-0.010916513243005379
3.448180050013893,0.08955942736273856
3.4509585996110035,-0.038670365501978096
3.4537371492081137,-0.056302361003292355
3.456515698805224,-0.09927365435992098
3.459294248402334,0.051479370097062334
3.4620727979994443,0.08106745186915086
3.464851347596555,0.035701805308666644
3.467629897193665,-0.05244835591366587
3.4704084467907754,0.06088145878622108
3.4731869963878856,0.031170456313572185
3.4759655459849963,0.022969738874641342
3.4787440955821065,-0.05573104380327178
3.4815226451792167,-0.013366994669140632
3.484301194776327,-0.09518396784315768
3.487079744373437,-0.03398999032921202
3.489858293970548,-0.05421909243966352
3.492636843567658,0.019801808487348128
3.4954153931647682,0.030422538145461395
3.4981939427618784,-0.07617611779946643
3.5009724923589887,0.03905471175489546
3.5037510419560993,-0.06768026659785514
3.5065295915532095,0.035051061648250136
3.5093081411503197,-0.09707289622913222
3.51208669074743,0.11228303139670676
3.5148652403445406,-0.04487907642810976
3.517643789941651,0.07150028080257825
3.520422339538761,0.06014686853894901
3.5232008891358713,-0.08077939238391013
3.5259794387329815,-0.04623373913629393
3.528757988330092,0.022656311702945464
3.5315365379272023,-0.0335195644900102
3.5343150875243126,-0.06543673174703706
3.5370936371214228,-0.0402753076778171
3.539872186718533,0.08308888191905205
3.5426507363156436,-0.013669103296333095
3.545429285912754,-0.05767577365307136
3.548207835509864,0.060957714097719995
3.5509863851069743,0.051123255964510395
3.553764934704085,0.03725898370025147
3.556543484301195,0.02958245397131748
3.5593220338983054,0.1109130299248826
3.5621005834954156,0.09126189343965341
3.564879133092526,0.17219876416953728
3.5676576826896365,0.14581243472886904
3.5704362322867467,0.17798341896639772
3.573214781883857,0.22068687438818568
3.575993331480967,0.19752876149285944
3.5787718810780773,0.2551159063191043
3.581550430675188,0.4484866445263208
3.584328980272298,0.1366610554646323
3.5871075298694084,0.12920195011372007
3.5898860794665186,0.12167995890182029
3.5926646290636293,0.2134065323404552
3.5954431786607395,0.11341123106353704
3.5982217282578497,0.09437737847782668
3.60100027785496,0.09096716981181188
3.60377882745207,-0.0074370461816722425
3.606557377049181,0.009004092018168892
3.609335926646291,0.07440468631316798
3.612114476243401,0.08300207058825594
3.6148930258405114,0.08104254793966821
3.6176715754376216,0.24606584237123513
3.6204501250347323,0.5515040134841049
3.6232286746318425,0.976152697470128
3.6260072242289527,1.193061678710734
3.628785773826063,1.4225590287944812
3.6315643234231736,1.4255249214504233
3.634342873020284,1.1199207326520004
3.637121422617394,0.8385284491572049
3.6398999722145042,0.5122345948984264
3.6426785218116144,0.36409182567871956
3.645457071408725,-0.025022234076547578
3.6482356210058353,-0.00922523950643045
3.6510141706029455,0.06043917813427893
3.6537927202000557,-0.008639964992908311
3.656571269797166,0.049819449232425886
3.6593498193942766,0.08029072498615707
3.662128368991387,0.02938674516913844
3.664906918588497,0.012617170515847374
3.6676854681856073,-0.090196871027972
3.670464017782718,0.017098268091223643
3.673242567379828,0.057128230306762944
3.6760211169769383,0.011550415085950583
3.6787996665740486,0.050927438008683976
3.6815782161711588,-0.042024677169339435
3.6843567657682694,0.0212017940053755
3.6871353153653796,0.04536208143323342
3.68991386496249,-0.04051803336123313
3.6926924145596,0.02063533628821768
3.6954709641567103,0.04109133450729572
3.698249513753821,0.009683103473273823
3.701028063350931,0.010015465041441504
3.7038066129480414,-0.09393480795174634
3.7065851625451516,-0.007602028672419088
3.7093637121422622,-0.034723107447853
3.7121422617393725,0.014751100567283714
3.7149208113364827,-0.03413138447336514
3.717699360933593,-0.007297639573800089
3.720477910530703,-0.06344657724204045
3.7232564601278137,0.0414686402857861
3.726035009724924,-0.03279676874328851
3.728813559322034,0.024395279703918464
3.7315921089191444,0.04432258899602551
3.7343706585162546,0.06829758803738678
3.7371492081133653,-0.0010780198637508134
3.7399277577104755,0.044260680523109754
3.7427063073075857,-6.097397882607464e-05
3.745484856904696,0.01856484958367268
3.7482634065018066,0.03375961556789081
3.7510419560989168,0.09177830332692417
3.753820505696027,0.0617629675243825
3.756599055293137,0.1833246765829356
3.7593776048902474,0.11413190658341824
3.762156154487358,0.22404418155790284
3.7649347040844683,0.2594036152180819
3.7677132536815785,0.15676797457097497
3.7704918032786887,0.2584841286563225
3.773270352875799,0.3223420784836197
3.7760489024729096,0.3378722613190531
3.77882745207002,0.366057343836641
3.78160600166713,0.29061005754292774
3.7843845512642402,0.27679507680528476
3.787163100861351,0.2521960084861348
3.789941650458461,0.26193357376306275
3.7927202000555713,0.1835762778212274
3.7954987496526815,0.20436962568953207
3.7982772992497917,0.2785999196717383
3.8010558488469024,0.16608044841163067
3.8038343984440126,0.22729883684686988
3.806612948041123,0.16339149784540638
3.809391497638233,0.10410522784918783
3.8121700472353433,0.06687139425533821
3.814948596832454,0.11325007042493888
3.817727146429564,0.05111122322722034
3.8205056960266743,0.047897088231238866
3.8232842456237845,0.046060600402468815
3.8260627952208948,0.05563748905839216
3.8288413448180054,-0.103775597580959
3.8316198944151156,0.028230806285421385
3.834398444012226,-0.013526783515396146
3.837176993609336,0.054013537524833455
3.8399555432064467,0.03165111420725221
3.842734092803557,0.043969028902985756
3.845512642400667,0.017346726965398067
3.8482911919977774,-0.05526924196214241
3.8510697415948876,0.04926546594460375
3.8538482911919982,-0.05359955714211056
3.8566268407891084,0.08161250312270318
3.8594053903862187,-0.00448406453356861
3.862183939983329,0.022510549945090327
3.864962489580439,-0.09419068896474658
3.8677410391775497,0.021932223699916147
3.87051958877466,-0.014438686267117213
3.87329813837177,0.014515505420080925
3.8760766879688804,0.0006444302833904717
3.878855237565991,0.007654883568788042
3.8816337871631013,0.07364508966919822
3.8844123367602115,-0.053454557450665595
3.8871908863573217,0.00856928499734564
3.889969435954432,-0.009599497922742827
3.8927479855515426,-0.006129935421157806
3.8955265351486528,0.09356527005913826
3.898305084745763,-0.020486345820584076
3.901083634342873,-0.06560403459594762
3.9038621839399834,0.03057695594567231
3.906640733537094,-0.05033792774107137
3.9094192831342043,-0.012297902663030475
3.9121978327313145,-0.08591343832939224
3.9149763823284247,0.03921171896185079
3.9177549319255354,-0.014908650927647392
3.9205334815226456,0.005330350532883524
3.923312031119756,0.013633408559635801
3.926090580716866,-0.03304929420755361
3.928869130313976,-0.024642813261239523
3.931647679911087,-0.013560036929686966
3.934426229508197,0.012415738027383527
3.9372047791053073,-0.02325246545494058
3.9399833287024175,-0.1264252345630819
3.9427618782995277,0.026041986942180715
3.9455404278966384,-0.03737784561221026
3.9483189774937486,0.02534708320961494
3.951097527090859,0.05412936434984501
3.953876076687969,0.008343417807586587
3.9566546262850797,-0.012105217648399438
3.95943317588219,0.013910686341822355
3.9622117254793,0.026692348571213994
3.9649902750764103,0.013496361384464644
3.9677688246735205,0.03783496217460951
3.970547374270631,0.011090640336725195
3.9733259238677414,-0.05630167856054106
3.9761044734648516,0.026196053085729292
3.978883023061962,-0.07388764016338593
3.981661572659072,0.0473204846922919
3.9844401222561827,-0.024687360642558265
3.987218671853293,-0.03777377772551682
3.989997221450403,-0.11175080009724893
3.9927757710475134,-0.014956638449520776
3.995554320644624,-0.03657535196952641
3.9983328702417342,-0.04123182556640119
4.001111419838844,0.05471730491722279
4.003889969435955,-0.06055653483754398
4.006668519033065,0.03255075739894294
4.009447068630175,0.054182361599786316
4.012225618227285,0.03926300277210151
4.015004167824396,0.007556772077205226
4.017782717421507,0.04806459333685238
4.020561267018617,0.11902391940098726
4.023339816615727,-0.05493191236412274
4.026118366212837,-0.012915701003975759
4.0288969158099475,-0.02607810567254103
4.031675465407058,-0.05324286320953378
4.034454015004168,-0.028756250824720032
4.037232564601278,-0.009273738639357891
4.040011114198388,-0.03512484839825145
4.042789663795499,-0.10619161004558438
4.04556821339261,-0.047318776715523383
4.04834676298972,0.12148352902973263
4.05112531258683,0.1424226312526154
4.05390386218394,0.016186595332314035
4.0566824117810505,-0.057200848872385524
4.059460961378161,0.1734560535138279
4.062239510975271,0.00942088857184184
4.065018060572381,0.17868380522103572
4.067796610169492,0.25322377809348545
4.0705751597666024,0.0955597127173532
4.073353709363713,0.05551450703856818
4.076132258960823,0.18614356344555716
4.078910808557933,0.18011700785452558
4.081689358155043,0.21044315398954455
4.0844679077521535,0.16933313342702938
4.087246457349264,0.1459775314557405
4.090025006946374,0.12323901018679588
4.092803556543485,0.115015752461559
4.095582106140595,0.00909754918229537
4.0983606557377055,0.19916368553268687
4.101139205334816,0.10898117309073799
4.103917754931926,-0.021032594122208807
4.106696304529036,0.07747688704734103
4.109474854126146,-0.07139825930261326
4.1122534037232565,0.08812219095963536
4.115031953320367,0.16508935047242876
4.117810502917477,0.34815175427992423
4.120589052514588,0.5963603829634979
4.123367602111698,0.9590963278371867
4.1261461517088085,1.1623960773331976
4.128924701305919,1.4381583302434597
4.131703250903029,1.31539064935991
4.134481800500139,1.1550629505505428
4.137260350097249,0.7140244617203612
4.14003889969436,0.5432362001518859
4.14281744929147,0.2460490887814634
4.145595998888581,0.11695793309363355
4.148374548485691,0.07914934144982683
4.151153098082801,0.07120046490402403
4.1539316476799115,0.07785338492135394
4.156710197277022,-0.05267695095698231
4.159488746874132,-0.06874419684010027
4.162267296471242,-0.06367073786276385
4.165045846068352,-0.0256853198057983
4.167824395665463,-0.0013204462344167383
4.170602945262574,-0.07595636520706572
4.173381494859684,0.0012418416623771738
4.176160044456794,0.05239138923216339
4.178938594053904,-0.005537761930622832
4.1817171436510145,-0.009717248323962117
4.184495693248125,0.03293895457796722
4.187274242845235,-0.044788836345190375
4.190052792442345,0.036403758802730536
4.192831342039455,-0.03431965715567276
4.195609891636566,-0.00533488639652804
4.198388441233677,0.06827908238465616
4.201166990830787,0.032221702008599376
4.203945540427897,0.06203385784108904
4.206724090025007,0.030831816720842068
4.209502639622118,0.03379021348676951
4.212281189219228,-0.12071698137682352
4.215059738816338,0.049086644220266075
4.217838288413448,-0.016444201927893597
4.220616838010558,-0.012100471492314836
4.2233953876076695,0.0386361861227235
4.22617393720478,0.08150406322109893
4.22895248680189,0.06847905018766741
4.231731036399,0.033600884421422915
4.23450958599611,0.07075485443319418
4.237288135593221,-0.04267677623797243
4.240066685190331,0.13239887507761833
4.242845234787441,0.042805599257289696
4.245623784384551,0.020061164032641327
4.248402333981662,0.18037534535973043
4.2511808835787726,0.12342383451588332
4.253959433175883,0.051979412397637675
4.256737982772993,0.10643240050276553
4.259516532370103,0.15843845129830866
4.262295081967213,0.21270979898689013
4.265073631564324,0.21700408403813592
4.267852181161434,0.22700304789330655
4.270630730758544,0.2402238396980783
4.273409280355654,0.37198917389023733
4.276187829952765,0.2715788980161739
4.278966379549876,0.26308608916954773
4.281744929146986,0.2458004044192355
4.284523478744096,0.30867155448945377
4.287302028341206,0.22203693852430914
4.290080577938316,0.2561030035090751
4.292859127535427,0.27864904290239295
4.295637677132537,0.19414007842701977
4.298416226729647,0.2299366074416597
4.301194776326758,0.18297666506648455
4.303973325923868,0.14783667266033196
4.306751875520979,0.13423824182792607
4.309530425118089,0.1416139911438664
4.312308974715199,0.01630398653047399
4.315087524312309,0.08539327966211085
4.3178660739094195,0.09850917673205715
4.32064462350653,0.10728104158626614
4.32342317310364,0.06041081439703799
4.32620172270075,0.08582705172239541
4.328980272297861,-0.006776658391011247
4.331758821894971,-0.04786807916621916
4.334537371492082,0.04535484706834261
4.337315921089192,-0.03833959926344113
4.340094470686302,-0.004242786327107376
4.342873020283412,-0.013422499546087745
4.3456515698805225,0.12298657236991671
4.348430119477633,-0.010269243247449673
4.351208669074743,0.02815104083881139
4.353987218671854,-0.0018269275780603608
4.356765768268964,-0.025969724078183865
4.359544317866074,0.0480606273343811
4.362322867463185,-0.0055226758016809424
4.365101417060295,-0.041148493388191876
4.367879966657405,-0.02711003448849587
4.370658516254515,0.02001620927393148
4.3734370658516255,-0.031060742583989397
4.376215615448736,0.007452448207267044
4.378994165045847,0.027492950662720093
4.381772714642957,-0.01628643758362572
4.384551264240067,0.007032005424664214
4.3873298138371775,-0.08491455032758455
4.390108363434288,0.010302587742012584
4.392886913031398,-0.008280674778286408
4.395665462628508,-0.02046743547110125
4.398444012225618,0.023448083842719833
4.4012225618227285,-0.03444005887745298
4.404001111419839,0.016799222060850154
4.40677966101695,0.020752868863778806
4.40955821061406,-0.0015656404692855164
4.41233676021117,0.011456431249281992
4.4151153098082805,0.03443928646410762
4.417893859405391,0.020416329115570533
4.420672409002501,-0.024808367320568493
4.423450958599611,-0.04597521352712489
4.426229508196721,0.0019397313735874558
4.4290080577938316,-0.00012507472342601994
4.431786607390943,0.04218292628524247
4.434565156988053,-0.06941844410857459
4.437343706585163,0.0020059854409583268
4.440122256182273,0.0430191518358062
4.4429008057793835,-0.03034734255957513
4.445679355376494,-0.01880368218816503
4.448457904973604,0.005501349889972708
4.451236454570714,0.03569966661065105
4.454015004167824,0.0760787414508122
4.4567935537649355,0.03975531813961384
4.459572103362046,-0.046309482488051765
4.462350652959156,0.040625182031430764
4.465129202556266,-0.09646300484265503
4.467907752153376,0.04408767414843111
4.4706863017504865,-0.012247103912485747
4.473464851347597,-0.0422798731758602
4.476243400944707,0.011056540981997013
4.479021950541817,-0.027650028536399054
4.481800500138927,-0.07163401146404681
4.4845790497360385,-0.024866568027013834
4.487357599333149,-0.028511065638266667
4.490136148930259,0.00808454743448186
4.492914698527369,0.06637820572532854
4.495693248124479,0.024391890980341443
4.49847179772159,0.02166345293599484
4.5012503473187,0.048238345855956884
4.50402889691581,0.015575566627312045
4.50680744651292,0.0014953441329378172
4.509585996110031,-0.035143708751024016
4.5123645457071415,-0.004412660372767834
4.515143095304252,-0.024484145253090634
4.517921644901362,0.04070425631545346
4.520700194498472,-0.03588842800685251
4.523478744095582,0.03218526674413303
4.526257293692693,-0.0058288837419748
4.529035843289803,0.0016042758900876445
4.531814392886913,0.022194768023114347
4.534592942484024,-0.024258344748511483
4.537371492081134,0.0014906704709322092
4.5401500416782445,-0.01488633561441725
4.542928591275355,-0.013483481868430174
4.545707140872465,0.006953728583236564
4.548485690469575,0.07142920411771815
4.551264240066685,0.01856517794667886
4.554042789663796,0.09305240710222204
4.556821339260906,0.038191230842642795
4.559599888858016,0.06935592367073093
4.562378438455127,0.1699257285129267
4.565156988052237,0.17957245507380293
4.567935537649348,0.08909836296475585
4.570714087246458,0.20789545468431073
4.573492636843568,0.21168964186510267
4.576271186440678,0.2020989393108531
4.579049736037788,0.20790441382199318
4.581828285634899,0.2772738931001815
4.584606835232009,0.2212963730552731
4.58738538482912,0.12523515190848478
4.59016393442623,0.16502641833013615
4.59294248402334,0.07550845113709656
4.595721033620451,0.1277544029950733
4.598499583217561,0.1703100145528547
4.601278132814671,0.08803705226509281
4.604056682411781,-0.00288248229173467
4.6068352320088914,0.15084272411606975
4.609613781606002,0.04027933269868097
4.612392331203113,0.06953168932095324
4.615170880800223,0.21754094742341204
4.617949430397333,0.30170766717840936
4.620727979994443,0.5923215243378684
4.623506529591554,0.9075935458158646
4.626285079188664,1.2602155242033595
4.629063628785774,1.3585764355453764
4.631842178382884,1.3316592922289423
4.6346207279799945,1.1502102625426973
4.637399277577105,0.8715556841189919
4.640177827174216,0.4451911845973214
4.642956376771326,0.25184232459197653
4.645734926368436,0.12766505452368387
4.648513475965546,0.08657708560323302
4.651292025562657,0.06511582155708603
4.654070575159767,0.052995329880069324
4.656849124756877,0.0041810259653310075
4.659627674353987,0.03521586722126698
4.6624062239510975,0.02065922680038801
4.665184773548209,0.0456371337128194
4.667963323145319,-0.018196082663239865
4.670741872742429,0.014818130228337946
4.673520422339539,-0.0016371158997871744
4.6762989719366495,-0.01804439482149647
4.67907752153376,0.003383662239341933
4.68185607113087,-0.056063090095329206
4.68463462072798,-0.07452518684049396
4.68741317032509,-0.009706679858122779
4.690191719922201,-0.025529519075673638
4.692970269519312,-0.033491597792124336
4.695748819116422,0.08467980047644068
4.698527368713532,-0.08319234432354504
4.701305918310642,0.1268278910558703
4.7040844679077525,0.06613645602578917
4.706863017504863,0.018385866049836313
4.709641567101973,-0.0014886389962466375
4.712420116699083,-0.09225860106092455
4.715198666296193,0.08132327086108784
4.717977215893304,-0.007037046515223501
4.720755765490415,0.040311287176255164
4.723534315087525,-0.012641262151117001
4.726312864684635,0.09933379717844161
4.729091414281745,-0.018944490602791263
4.7318699638788555,0.021261351841107348
4.734648513475966,0.03491529371500355
4.737427063073076,0.04023805250041804
4.740205612670186,0.047231087207240924
4.742984162267297,0.11494158044902672
4.7457627118644075,-0.022612554114558384
4.748541261461518,0.05067526963231975
4.751319811058628,0.15961546093801657
4.754098360655738,0.09494655937562388
4.756876910252848,0.19119065158824652
4.7596554598499585,0.24081478612084034
4.762434009447069,0.30654086046305273
4.765212559044179,0.198525236774056
4.767991108641289,0.19164423244983111
4.7707696582384,0.26143937133874795
4.7735482078355105,0.25584280171425233
4.776326757432621,0.3078409077910591
4.779105307029731,0.19397524961134013
4.781883856626841,0.25057506834783516
4.784662406223951,0.3643114414806485
4.7874409558210616,0.21597157348982338
4.790219505418172,0.33439028419599776
4.792998055015282,0.21666377032920414
4.795776604612393,0.24984922856008046
4.798555154209503,0.2038277815098772
4.8013337038066135,0.2290520621188178
4.804112253403724,0.10285139775933777
4.806890803000834,0.09364039438623069
4.809669352597944,0.128330569580772
4.812447902195054,0.1294649002942397
4.815226451792165,0.04517408602740694
4.818005001389275,0.05493182510095695
4.820783550986386,0.04274620254057797
4.823562100583496,0.034342006545544465
4.826340650180606,0.1040380008950283
4.8291191997777165,0.11560891772855282
4.831897749374827,-0.025524791642691405
4.834676298971937,0.01064051943691537
4.837454848569047,-0.02462792238610322
4.840233398166157,-0.08038280214002126
4.843011947763268,0.0067608377924231735
4.845790497360378,-0.04531640737817809
4.848569046957489,-0.0823047847548692
4.851347596554599,-0.02738130030767328
4.854126146151709,-0.07197165906778039
4.85690469574882,-0.04372730062408281
4.85968324534593,-0.04183586507485799
4.86246179494304,0.010448798797916393
4.86524034454015,0.08731475780118422
4.86801889413726,0.017229648017598766
4.870797443734371,-0.01269464917285025
4.873575993331482,-0.027060984141891543
4.876354542928592,-0.02487735124436086
4.879133092525702,-0.01717676375589559
4.881911642122812,-0.019626992347239955
4.884690191719923,-0.027618082269369192
4.887468741317033,0.002202728851274505
4.890247290914143,0.012318762582472382
4.893025840511253,0.09990365190182886
4.895804390108363,0.03709763877467049
4.8985829397054745,-0.0294973421003601
4.901361489302585,-0.03379388232861155
4.904140038899695,-0.054696492369583134
4.906918588496805,-0.017684176600703705
4.909697138093915,-0.019006634337591238
4.912475687691026,-0.06206245790362862
4.915254237288136,0.053792804291534005
4.918032786885246,0.04020643331051038
4.920811336482356,-0.03448345602763663
4.9235898860794665,-0.06882365002961606
4.926368435676578,0.017680680928235163
4.929146985273688,-0.09292809091498694
4.931925534870798,-0.030572538354823712
4.934704084467908,-0.022660719998844222
4.937482634065018,0.0048994567621374234
4.940261183662129,-0.012783546189697443
4.943039733259239,0.032704535609166197
4.945818282856349,-0.002632235943056167
4.948596832453459,-0.018285730241842643
4.95137538205057,0.009667076263051707
4.954153931647681,0.022890367425644834
4.956932481244791,-0.006405335740817526
4.959711030841901,0.01254440856046428
4.962489580439011,0.007781748281289554
4.965268130036121,-0.08048275312867624
4.968046679633232,-0.009546918322916348
4.970825229230342,0.005961700665609374
4.973603778827452,0.025936279795211462
4.976382328424563,0.03598762261097378
4.979160878021673,0.02070955296501114
4.981939427618784,0.012275749767746492
4.984717977215894,-0.1002428991727052
4.987496526813004,0.01004968300492507
4.990275076410114,0.047102206607275376
4.9930536260072245,-0.11674626337186676
4.995832175604335,-0.056427550282114304
4.998610725201445,0.004837263387534794
5.001389274798555,-0.03887303144419279
5.004167824395666,0.03791561753536511
5.006946373992776,0.014846954509649818
5.009724923589887,-0.044064373538829305
5.012503473186997,0.011322110956818999
5.015282022784107,0.08036703596842293
5.018060572381217,0.014821957204921002
5.0208391219783275,0.03809046502993649
5.023617671575438,-0.06742052072369477
5.026396221172548,-0.0459479231157266
5.029174770769659,-0.015380481728180934
5.031953320366769,0.004583478675960291
5.0347318699638794,-0.0076281250607036
5.03751041956099,0.03638029478847203
5.0402889691581,-0.05161958916507696
5.04306751875521,0.06400132717655274
5.04584606835232,-0.0346984404564486
5.0486246179494305,0.025514955046677973
5.051403167546541,-0.02510038420672036
5.054181717143652,0.10218929980286602
5.056960266740762,0.09376022049552717
5.059738816337872,0.13252947182624303
5.0625173659349825,0.04936567282213737
5.065295915532093,0.08021761669507191
5.068074465129203,0.21299121928449377
5.070853014726313,0.19941365835820787
5.073631564323423,0.21361260742099267
5.0764101139205335,0.14374947326016674
5.079188663517644,0.17997500566177307
5.081967213114755,0.10186692374145569
5.084745762711865,0.2232245048304458
5.087524312308975,0.1353211301254521
5.0903028619060855,0.15867542500758508
5.093081411503196,0.0407705235607797
5.095859961100306,0.04582980243777638
5.098638510697416,0.027146652355008807
5.101417060294526,0.05047971625934861
5.104195609891637,0.014054973741790266
5.106974159488748,-0.01584413190245261
5.109752709085858,0.05284546013755229
5.112531258682968,0.04989055853950752
5.115309808280078,0.16081568305520286
5.1180883578771885,0.3718573532185525
5.120866907474299,0.6816818538847981
5.123645457071409,0.9501340869276735
5.126424006668519,1.2482127268480356
5.129202556265629,1.432253606745956
5.1319811058627405,1.3394610339815793
5.134759655459851,1.1684381636586
5.137538205056961,0.8357133490287345
5.140316754654071,0.37116360280317273
5.143095304251181,0.2861623396827507
5.1458738538482915,0.1083043052186862
5.148652403445402,0.04103015385618294
5.151430953042512,0.0694875921466312
5.154209502639622,0.01583956498392157
5.156988052236732,0.09152186509051748
5.1597666018338435,-0.03980419401637308
5.162545151430954,0.047447569599992905
5.165323701028064,-0.009317661430073426
5.168102250625174,-0.01257451682686994
5.170880800222284,0.03094839744640828
5.173659349819395,0.045182916101904766
5.176437899416505,-0.045805625413257785
5.179216449013615,-0.05454290000647546
5.181994998610725,0.07599705134712144
5.184773548207836,0.048932534863295477
5.1875520978049465,0.034343703135017084
5.190330647402057,0.06618813831439141
5.193109196999167,-0.006241060255013692
5.195887746596277,-0.038678046758281355
5.198666296193387,-0.03896175356381615
5.201444845790498,0.0978758862905542
5.204223395387608,-0.08986565820015509
5.207001944984718,0.09325878023146511
5.209780494581829,0.049425442200370276
5.212559044178939,0.021451195281195583
5.2153375937760496,-0.08724550562237782
5.21811614337316,0.007300670951361099
5.22089469297027,-0.032023469671092854
5.22367324256738,0.08048472108626571
5.22645179216449,-0.09090410235091537
5.229230341761601,0.008253024756395914
5.232008891358711,0.03599134728747132
5.234787440955821,0.023088720411909295
5.237565990552932,0.004646262797451898
5.240344540150042,0.0301822394044576
5.243123089747153,0.12704952603298675
5.245901639344263,-0.019974512501448813
5.248680188941373,0.09164197939539483
5.251458738538483,0.07340851882963759
5.254237288135593,0.11439654903511837
5.257015837732704,0.13655174746775087
5.259794387329814,0.21718145779072429
5.262572936926925,0.3187526032048572
5.265351486524035,0.2066800217737588
5.268130036121145,0.19874786089919516
5.270908585718256,0.33358450447298027
5.273687135315366,0.2684078971736657
5.276465684912476,0.32995773808520595
5.279244234509586,0.37300506256509747
5.2820227841066965,0.3698931735620916
5.284801333703807,0.29013474168406866
5.287579883300917,0.24488734348942295
5.290358432898028,0.22490527603891775
5.293136982495138,0.16317772730585106
5.295915532092248,0.22863042224466607
5.298694081689359,0.1950680228484979
5.301472631286469,0.21289955238662536
5.304251180883579,0.102143758596856
5.307029730480689,0.12858910492168135
5.3098082800777995,0.11274017356026958
5.31258682967491,0.07258630085278263
5.315365379272021,0.0661667897608153
5.318143928869131,0.03658723412623598
5.320922478466241,0.05361094930162855
5.323701028063351,-0.0061392277245803754
5.326479577660462,-0.025617997325483654
5.329258127257572,0.012756293397833582
5.332036676854682,-0.029048915356270886
5.334815226451792,0.04412278983866156
5.3375937760489025,0.029726349899351787
5.340372325646014,0.008590244878484294
5.343150875243124,0.05101691801652859
5.345929424840234,-0.050693926957809284
5.348707974437344,0.02626738742663544
5.3514865240344545,-0.027486265256740642
5.354265073631565,0.03315118319995321
5.357043623228675,0.08274842539343599
5.359822172825785,-0.059275213748265956
5.362600722422895,-0.041568350569741
5.3653792720200055,0.05213623078479332
5.368157821617117,-0.0003497055632997374
5.370936371214227,-0.009342831269264024
5.373714920811337,0.07707619991453013
5.376493470408447,0.054801191631347855
5.3792720200055575,-0.009855602425596204
5.382050569602668,0.014279064904922457
5.384829119199778,0.09036815325054555
5.387607668796888,0.0017521929403614873
5.390386218393998,0.10931688027852497
5.393164767991109,-0.019926086667587332
5.39594331758822,0.03868914136612568
5.39872186718533,-0.11365302597857369
5.40150041678244,-0.006840508456325349
5.40427896637955,-0.007472385523198306
5.4070575159766605,0.07336312519868371
5.409836065573771,0.029719209213637517
5.412614615170881,-0.013123683545208827
5.415393164767991,0.01563568573039346
5.418171714365102,0.04369170196452795
5.4209502639622125,0.03134037405147575
5.423728813559323,0.024607073748171372
5.426507363156433,0.04533577917148082
5.429285912753543,0.00910962406195984
5.432064462350653,0.02408510732735527
5.4348430119477635,-0.024661303821142552
5.437621561544874,0.05033857971733305
5.440400111141984,-0.09921812725633636
5.443178660739094,-0.03992967334265088
5.445957210336205,-0.021721043196202577
5.4487357599333155,0.0300166091945412
5.451514309530426,-0.0032087539636905765
5.454292859127536,0.02329429792581548
5.457071408724646,-0.034150939778498805
5.459849958321756,0.021571396121417466
5.462628507918867,-0.08879556893626467
5.465407057515977,-0.09438237610719452
5.468185607113087,0.05659977427060497
5.470964156710198,0.03321022005436956
5.473742706307308,0.0018312636801931113
5.4765212559044185,0.06069770240569614
5.479299805501529,-0.0640700977235384
5.482078355098639,0.002979310804029115
5.484856904695749,0.0347598322268864
5.487635454292859,-0.0569732229659165
5.49041400388997,0.046233583582977376
5.49319255348708,-0.01290620495031526
5.495971103084191,-0.02359675008881664
5.498749652681301,-0.05809496763022941
5.501528202278411,0.011871226261957631
5.5043067518755215,-0.018596710259097645
5.507085301472632,-0.08967063560850129
5.509863851069742,0.034196382911548945
5.512642400666852,-0.04263413570044188
5.515420950263962,0.019502307610567596
5.518199499861073,-0.023990861092867907
5.520978049458183,-0.015863030252306422
5.523756599055294,0.11158319166472842
5.526535148652404,-0.08598744450186369
5.529313698249514,-0.04183637124853197
5.532092247846625,0.0629558427076048
5.534870797443735,-0.022392905020963028
5.537649347040845,0.012456148802125581
5.540427896637955,0.05455075935482551
5.543206446235065,0.012078266196282647
5.545984995832176,-0.0841910407258512
5.548763545429287,-0.07735155270563199
5.551542095026397,-0.0034177496437857308
5.554320644623507,0.10052673588701187
5.557099194220617,0.006801640806344336
5.559877743817728,-0.026879739367136737
5.562656293414838,0.05952735175960092
5.565434843011948,0.16195934515389246
5.568213392609058,0.027147098500483524
5.5709919422061684,0.1722851576632118
5.5737704918032795,0.1626492822160172
5.57654904140039,0.22852217182335285
5.5793275909975,0.21687165976640008
5.58210614059461,0.1672072646967504
5.58488469019172,0.1584801354341719
5.587663239788831,0.21847286813455216
5.590441789385941,0.1676160216442801
5.593220338983051,0.20110420621557296
5.595998888580161,0.13169164814681245
5.5987774381772715,0.06724227345589609
5.601555987774383,0.07646119121614976
5.604334537371493,0.11618141145513153
5.607113086968603,0.018745411835411025
5.609891636565713,-0.000473973178004225
5.612670186162823,0.16987698435456466
5.615448735759934,0.12219911792540233
5.618227285357044,0.37203545876502525
5.621005834954154,0.610774839631049
5.623784384551264,0.8497249091533629
5.626562934148375,1.2278201640718873
5.629341483745486,1.3956368371134786
5.632120033342596,1.2906019884196147
5.634898582939706,1.1094983626854227
5.637677132536816,0.8072657445551212
5.6404556821339265,0.49821844744274757
5.643234231731037,0.3479967375303481
5.646012781328147,0.13565237860083862
5.648791330925257,0.0031700204798318157
5.651569880522368,0.005996578558357736
5.654348430119478,-0.014299347771264789
5.657126979716589,0.10675062179867907
5.659905529313699,0.005284959815549714
5.662684078910809,0.07979381650897954
5.665462628507919,-0.044915227914663534
5.6682411781050295,-0.10982224538500397
5.67101972770214,0.025959950173768925
5.67379827729925,0.06363646854743206
5.67657682689636,-0.037055151960376946
5.679355376493471,0.027525821356262296
5.682133926090581,0.03966705606270187
5.684912475687692,-0.014851758662318137
5.687691025284802,-0.05861337631808643
5.690469574881912,-0.0505452901283016
5.693248124479022,-0.03569870328983636
5.6960266740761325,-0.08455767648863852
5.698805223673243,0.021466068523831226
5.701583773270353,-0.033295589626736455
5.704362322867464,0.0702975188449659
5.707140872464574,-0.0195848382240613
5.7099194220616845,-0.023423094530707792
5.712697971658795,0.06714402292704752
5.715476521255905,0.025137612469838755
5.718255070853015,0.037502817914487646
5.721033620450125,-0.007463556545753568
5.7238121700472355,0.015715973645366067
5.726590719644346,-0.06833512478907716
5.729369269241456,-0.005074859188404248
5.732147818838567,0.031487515222245514
5.734926368435677,0.038532979798918884
5.7377049180327875,0.1760925212108721
5.740483467629898,0.04360695271073839
5.743262017227008,0.09727266670857714
5.746040566824118,0.08084969334283122
5.748819116421228,0.06437845102727352
5.7515976660183386,0.05839264986652309
5.754376215615449,0.16046361056922487
5.75715476521256,0.24038828175192767
5.75993331480967,0.10510448678382919
5.76271186440678,0.1681200213875817
5.7654904140038905,0.23621253088289454
5.768268963601001,0.25306035133072535
5.771047513198111,0.22715889872611156
5.773826062795221,0.28067855320002116
5.776604612392331,0.28859495826379317
5.779383161989442,0.30584099861899094
5.782161711586553,0.29601981707973507
5.784940261183663,0.3242822679789744
5.787718810780773,0.2032148011475508
5.790497360377883,0.19633514963860513
5.7932759099749935,0.23402044585940607
5.796054459572104,0.20440448734516964
5.798833009169214,0.17503579414865222
5.801611558766324,0.20484085772359326
5.804390108363434,0.11464077039181675
5.807168657960545,0.1788212113184084
5.809947207557656,0.10702441642487193
5.812725757154766,0.0777044548388145
5.815504306751876,0.07791084996540215
5.818282856348986,0.1246521568328638
5.821061405946097,0.049039146221666635
5.823839955543207,0.0269328951054234
5.826618505140317,0.06775637190900524
5.829397054737427,0.02181798459057691
5.832175604334537,0.02431279882082091
5.8349541539316485,-0.016614411672758376
5.837732703528759,0.046648501219372585
5.840511253125869,-0.015725388260166437
5.843289802722979,0.032474865029321225
5.846068352320089,0.001841342100476239
5.8488469019172,-0.020636531403504726
5.85162545151431,-0.009538684749513611
5.85440400111142,-0.017893395304300494
5.85718255070853,0.04861018843521459
5.859961100305641,0.0006929644191612969
5.8627396499027515,0.013248844078622089
5.865518199499862,-0.05901840727383651
5.868296749096972,0.007354825742566421
5.871075298694082,-0.02406158076784067
5.873853848291192,0.013023957370794845
5.876632397888303,-0.06713218646287628
5.879410947485413,-0.007352268792834125
5.882189497082523,-0.06023948058192595
5.884968046679633,-0.009824712856132073
5.887746596276744,0.019552877942564086
5.890525145873855,0.029485573981123687
5.893303695470965,-0.033741188499774644
5.896082245068075,-0.06600437122946759
5.898860794665185,-0.04398869681745093
5.901639344262295,0.12160264656637772
5.904417893859406,0.030356430773835676
5.907196443456516,0.0031579344264253306
5.909974993053626,-0.036351141327309454
5.912753542650737,-0.09209804419993271
5.915532092247847,0.013937292647769403
5.918310641844958,0.006133640492838392
5.921089191442068,-0.025226233756430513
5.923867741039178,0.04056057539956364
5.926646290636288,0.013726056262695132
5.929424840233398,-0.04318432734555407
5.932203389830509,-0.015522966342573873
5.934981939427619,0.02265948570650094
5.93776048902473,0.025503859464032722
5.94053903862184,-0.04588377425067149
5.94331758821895,-0.007640301725341479
5.946096137816061,0.019300267188844752
5.948874687413171,-0.018817756485538056
5.951653237010281,-0.09114679830938793
5.954431786607391,-0.006123639478821519
5.9572103362045015,-0.03378953486800477
5.959988885801612,-0.009705944222836263
5.962767435398722,0.09605627359670765
5.965545984995833,-0.09608658440445621
5.968324534592943,0.012823803514547
5.971103084190053,-0.0019027999660947898
5.973881633787164,0.08669599038201277
5.976660183384274,0.0373886787823292
5.979438732981384,-0.07888138349809545
5.982217282578494,-0.02085598427993012
5.9849958321756045,-0.04259486317389121
5.987774381772715,0.041207946395969086
5.990552931369826,0.058137164224341904
5.993331480966936,-0.018185146220547274
5.996110030564046,-0.0056815255520889256
5.9988885801611564,0.01248935604474356
6.001667129758267,-0.0049181601915215855
6.004445679355377,-0.047334643546179285
6.007224228952487,0.06622374821877886
6.010002778549597,0.009061436996514011
6.0127813281467075,0.051461454329202426
6.015559877743819,0.05225070923904553
6.018338427340929,0.012811930398265241
6.021116976938039,0.050227528798747215
6.023895526535149,0.032351444190348175
6.0266740761322595,0.09444198606796621
6.02945262572937,-0.007369248964712615
6.03223117532648,-0.01669414715302863
6.03500972492359,-0.021806322775515048
6.0377882745207,-0.03549080661794923
6.0405668241178105,-0.028904622359431163
6.043345373714922,0.09127486017802237
6.046123923312032,-0.0023146597541627116
6.048902472909142,0.06655240812199288
6.051681022506252,-0.01276543008426187
6.0544595721033625,-0.004641352004909921
6.057238121700473,0.032168789106245044
6.060016671297583,0.16115017383396785
6.062795220894693,0.11799853936561988
6.065573770491803,0.11970983125992184
6.0683523200889145,0.17267010440204889
6.071130869686025,0.07603426224846027
6.073909419283135,0.24151636811866178
6.076687968880245,0.1817828857925669
6.079466518477355,0.2625307902722537
6.0822450680744655,0.1715089518641352
6.085023617671576,0.2170575258555538
6.087802167268686,0.20029802416254291
6.090580716865796,0.14972401415672917
6.093359266462907,0.10889397701165972
6.0961378160600175,0.08904808527600423
6.098916365657128,0.08395719867151906
6.101694915254238,0.2174730097982005
6.104473464851348,0.03995588934201286
6.107252014448458,0.10330633534764463
6.1100305640455685,0.07509592952937019
6.112809113642679,0.1515826162372086
6.115587663239789,0.19532500188595125
6.118366212836899,0.34790342661727236
6.12114476243401,0.5481196396741443
6.1239233120311205,1.0547378624821993
6.126701861628231,1.220102453469829
6.129480411225341,1.4761925180465247
6.132258960822451,1.4198179409706548
6.135037510419561,1.0030168113941795
6.137816060016672,0.8471917240353342
6.140594609613782,0.4996918107141535
6.143373159210892,0.23080893812348863
6.146151708808003,0.16217722115914612
6.148930258405113,0.030110101039222105
6.1517088080022235,0.04655888747421279
6.154487357599334,-0.04030464724471362
6.157265907196444,-0.0773119550770318
6.160044456793554,0.0130606691067747
6.162823006390664,-0.010240485112402041
6.165601555987775,-0.031818889330948175
6.168380105584885,-0.05049376642475982
6.171158655181995,-0.03245607621181137
6.173937204779106,0.031449357707360605
6.176715754376216,-0.007846174172248033
6.1794943039733266,0.06163530583575466
6.182272853570437,-0.006044394798781182
6.185051403167547,0.07711994183503683
6.187829952764657,-0.03750131768447824
6.190608502361767,-0.03744997016016968
6.193387051958878,-0.025228858699895197
6.196165601555988,-0.07742183881725662
6.198944151153099,-0.03173917275026946
6.201722700750209,0.01890097206702728
6.204501250347319,-0.04062459025963347
6.20727979994443,0.03830405839851202
6.21005834954154,0.06635730402234453
6.21283689913865,-0.017049495061176013
6.21561544873576,0.11652145422366642
6.21839399833287,-0.0005598939168376654
6.221172547929981,-0.03550286548661685
6.223951097527092,0.0013246215762368688
6.226729647124202,-0.055582396981709886
6.229508196721312,0.04293591413674372
6.232286746318422,0.03359101534527641
6.235065295915533,-0.04661410587073532
6.237843845512643,-0.06273837882679087
6.240622395109753,0.04552941128799063
6.243400944706863,0.07278640974134942
6.2461794943039735,0.06864523659782563
6.248958043901084,0.056151891725008264
6.251736593498195,0.0659271317550858
6.254515143095305,0.07618866239304095
6.257293692692415,0.15384062480048782
6.260072242289525,0.2345239911026321
6.262850791886636,0.25234201361982894
6.265629341483746,0.25429242980716193
6.268407891080856,0.2262861167507102
6.271186440677966,0.32028716960334586
6.2739649902750765,0.2624581502718674
6.276743539872188,0.23154137146613166
6.279522089469298,0.2554035279523089
6.282300639066408,0.25486433237997164
6.285079188663518,0.21038250615674847
6.287857738260628,0.28597594959397243
6.290636287857739,0.2858635823967665
6.293414837454849,0.2511265976676154
6.296193387051959,0.29056401341560767
6.298971936649069,0.17662430448395297
6.30175048624618,0.12696036643449005
6.304529035843291,0.23613314880969494
6.307307585440401,0.14338818092689606
6.310086135037511,0.07557281635164706
6.312864684634621,0.10980035653250797
6.3156432342317315,0.07450912813522988
6.318421783828842,0.09167935862176516
6.321200333425952,-0.002513866198732395
6.323978883023062,0.03422378477131108
6.326757432620172,0.019755088780041282
6.329535982217283,0.0439251657764559
6.332314531814394,-0.021023514354728254
6.335093081411504,-0.06120355599449443
6.337871631008614,0.0034463045679572254
6.340650180605724,0.024884260727355213
6.3434287302028345,0.026308679669988837
6.346207279799945,0.009678167851628977
6.348985829397055,-0.0339890271937701
6.351764378994165,-0.03748948286751923
6.354542928591276,0.063022107720749
6.357321478188386,0.04500482343533782
6.360100027785497,-0.001490089918549003
6.362878577382607,-0.09340133222720182
6.365657126979717,-0.08349012511853315
6.368435676576827,0.009669495027270587
6.3712142261739375,-0.14523047562169467
6.373992775771048,-0.018357675917448402
6.376771325368158,-0.040382466443214096
6.379549874965269,-0.05572481377154395
6.382328424562379,-0.10723095903306715
6.3851069741594895,0.019897207468302393
6.3878855237566,-0.06739574098474156
6.39066407335371,0.04677866949432726
6.39344262295082,0.06746809782417694
6.39622117254793,-0.016111901622751345
6.3989997221450405,-0.04446751914321549
6.401778271742151,-0.0468159861083113
6.404556821339261,0.009005149597713404
6.407335370936372,-0.10431851527293308
6.410113920533482,-0.02108600178986427
6.4128924701305925,-0.07658074712372107
6.415671019727703,0.05999690244165487
6.418449569324813,0.05252162183497806
6.421228118921923,-0.02110170987042986
6.424006668519033,-0.014350692577846151
6.426785218116144,0.012459755727410286
6.429563767713254,-0.044858351812271754
6.432342317310365,-0.03896171639425852
6.435120866907475,0.07455664407768656
6.437899416504585,-0.053002881721985876
6.4406779661016955,0.0367828856933351
6.443456515698806,0.02656133120823008
6.446235065295916,0.00035013240368569345
6.449013614893026,0.04263618269309784
6.451792164490136,-0.010090537943217428
6.454570714087247,-0.05947910270481809
6.457349263684358,-0.08698563999432166
6.460127813281468,-0.038944641743843135
6.462906362878578,0.002157212064966138
6.465684912475688,-0.030284846509542232
6.4684634620727985,0.12136817635115567
6.471242011669909,-0.03996341584246004
6.474020561267019,-0.01217746112923602
6.476799110864129,-0.10354597860115593
6.479577660461239,0.05827643758265471
6.48235621005835,0.03192885114434294
6.485134759655461,0.006152407636715619
6.487913309252571,-0.047588305421942596
6.490691858849681,-0.023754680962154374
6.493470408446791,-0.022005785503081875
6.496248958043902,-0.058143745101664805
6.499027507641012,-0.029537867345124084
6.501806057238122,0.02431590450027651
6.504584606835232,0.020233828825200487
6.507363156432342,-0.05115346869306893
6.5101417060294535,-0.0299156984664432
6.512920255626564,-0.011897285017921833
6.515698805223674,-0.02334712960628565
6.518477354820784,0.01659955425637149
6.521255904417894,0.04891919049764237
6.524034454015005,-0.041089406369776
6.526813003612115,-0.09431163416203345
6.529591553209225,0.008880564024669
6.532370102806335,-0.013855050965977984
6.535148652403446,0.04366901673836064
6.5379272020005565,0.012587397369773974
6.540705751597667,-0.048275480552395736
6.543484301194777,0.044153336300854266
6.546262850791887,0.012716930035213497
6.549041400388997,0.016252469539796716
6.551819949986108,0.005024926872649313
6.554598499583218,-0.06045798020912335
6.557377049180328,0.06439956467232888
6.560155598777438,0.06746953689343776
6.562934148374549,0.05133291985675469
6.56571269797166,0.0979481331298276
6.56849124756877,0.1183458111558247
6.57126979716588,0.17604942567747722
6.57404834676299,0.2184448442990636
6.5768268963601,0.24594351242856488
6.579605445957211,0.23236159575067208
6.582383995554321,0.15377387727473757
6.585162545151431,0.21855216547943443
6.587941094748542,0.2346900287182771
6.590719644345652,0.11550921122393981
6.593498193942763,0.09636510154003607
6.596276743539873,0.10118098716185736
6.599055293136983,0.07181559310414065
6.601833842734093,0.03225121614497217
6.6046123923312035,0.12163230691019089
6.607390941928314,0.05756403032174927
6.610169491525424,0.023364073972745706
6.612948041122535,0.06749295037742842
6.615726590719645,0.22929270867586685
6.618505140316755,0.362174303265029
6.621283689913866,0.6709249080363061
6.624062239510976,1.08347374104015
6.626840789108086,1.3337475942756578
6.629619338705196,1.3454187787264569
6.6323978883023065,1.2722368459392437
6.635176437899417,1.076670848213679
6.637954987496527,0.7520343404368681
6.640733537093638,0.3829734128540256
6.643512086690748,0.1634039320079811
6.646290636287858,0.07649526317624854
6.649069185884969,0.0037469432570340216
6.651847735482079,-0.02125509012535342
6.654626285079189,0.033699840446368735
6.657404834676299,-0.0068963942481939065
6.6601833842734095,-0.029157134622925684
6.66296193387052,0.023230642653053482
6.665740483467631,-0.022217070255121728
6.668519033064741,0.09214707557736482
6.671297582661851,0.01539809453682051
6.6740761322589615,0.05772843046452346
6.676854681856072,0.02536122217565222
6.679633231453182,-0.0443465140900439
6.682411781050292,0.014905862474862025
6.685190330647402,0.04004914833681596
6.6879688802445125,0.030581637310911486
6.690747429841623,-0.03729830436977024
6.693525979438734,0.10477176875407539
6.696304529035844,-0.02645483217863145
6.699083078632954,-0.01303592775385073
6.7018616282300645,0.05631712940386378
6.704640177827175,0.08519990352013647
6.707418727424285,-0.01325228025647517
6.710197277021395,0.017215585453289516
6.712975826618505,-0.0359521972895263
6.7157543762156156,-0.0022667176113984966
6.718532925812727,0.024795332696702827
6.721311475409837,0.011364353660763712
6.724090025006947,0.06300060780001503
6.726868574604057,-0.02990256806481019
6.7296471242011675,-0.01824178151113555
6.732425673798278,-0.015839513085253838
6.735204223395388,0.04487587111892932
6.737982772992498,-0.032342164828270924
6.740761322589608,0.1202389020248506
6.7435398721867195,0.08295675431528098
6.74631842178383,0.07192245676737251
6.74909697138094,0.10577500252748621
6.75187552097805,0.15542720591285125
6.75465407057516,0.1978797149740648
6.7574326201722705,0.1483802222327816
6.760211169769381,0.19676015646817552
6.762989719366491,0.20928696944419356
6.765768268963601,0.3024587744708119
6.768546818560711,0.2910135705560121
6.7713253681578225,0.29465438012467376
6.774103917754933,0.28498444619285984
6.776882467352043,0.28795539830903283
6.779661016949153,0.24959408974388214
6.782439566546263,0.2788024061945397
6.785218116143374,0.308468692911921
6.787996665740484,0.32289095222798714
6.790775215337594,0.28733039340771044
6.793553764934704,0.169336571882868
6.796332314531815,0.1614683277107562
6.7991108641289255,0.18652211917442962
6.801889413726036,0.19680013985507258
6.804667963323146,0.15845476344400944
6.807446512920256,0.09681393843779099
6.810225062517366,0.010309605376040365
6.813003612114477,0.10820380514605088
6.815782161711587,0.027629992541947347
6.818560711308697,0.05121039382288563
6.821339260905808,0.07693013686458325
6.824117810502918,0.013184535425441919
6.8268963601000285,0.03261364629256803
6.829674909697139,0.022349487253710186
6.832453459294249,0.10379961809401324
6.835232008891359,-0.015571800392790252
6.838010558488469,0.024469213314210942
6.84078910808558,0.019148275316096315
6.84356765768269,0.08243791917506184
6.8463462072798,0.09882210935422181
6.849124756876911,0.005750573706288837
6.851903306474021,0.06877597513129868
6.854681856071132,-0.012723262101867087
6.857460405668242,-0.0524369630875424
6.860238955265352,-0.010503213452795751
6.863017504862462,0.06442782195644256
6.865796054459572,-0.018269436968445227
6.868574604056683,-0.04419996635738665
6.871353153653793,-0.036466563187545056
6.874131703250904,0.015332250144381642
6.876910252848014,-0.03283949539060731
6.879688802445124,0.03727635598454782
6.882467352042235,0.026720124203547687
6.885245901639345,0.007022390321502711
6.888024451236455,0.009706902282152841
6.890803000833565,0.04235847857827044
6.893581550430675,0.027904863067140927
6.896360100027786,-0.01788128417442803
6.899138649624897,0.023878118044366316
6.901917199222007,0.06091979981069766
6.904695748819117,-0.022359566913888893
6.907474298416227,-0.01607268136821215
6.910252848013338,-0.08993810670379664
6.913031397610448,-0.0010802682344493747
6.915809947207558,-0.043870517254623695
6.918588496804668,-0.11145240233428867
6.9213670464017785,-0.004893408654009008
6.924145595998889,0.041513810754866376
6.926924145596,0.08169414295352999
6.92970269519311,0.02208451104269856
6.93248124479022,0.001231510723762645
6.93525979438733,-0.018917675015636282
6.938038343984441,0.006714922656335024
6.940816893581551,-0.11846670616464243
6.943595443178661,-0.01171945748114628
6.946373992775771,-0.015816482315908376
6.9491525423728815,-0.0025088267361586215
6.951931091969993,0.007191429770518924
6.954709641567103,0.02879499485780266
6.957488191164213,0.07962566508647918
6.960266740761323,0.03299413903525711
6.9630452903584334,-0.05560544238580227
6.965823839955544,-0.0008251698757879398
6.968602389552654,-0.05599321862720719
6.971380939149764,0.036536886337549646
6.974159488746874,-0.08320170824662732
6.976938038343985,-0.0788095009929083
6.979716587941096,-0.026924164639729145
6.982495137538206,0.026804841469696812
6.985273687135316,-0.08634883407112955
6.988052236732426,0.04202454508697628
6.9908307863295365,-0.08450233124099567
6.993609335926647,-0.06533390828728795
6.996387885523757,-0.03711607286621651
6.999166435120867,0.053651373736865626
7.001944984717977,-0.10101978768116508
7.004723534315088,0.009825574503889446
7.007502083912199,-0.07171975042034513
7.010280633509309,-0.09763330137293859
7.013059183106419,-0.03026120307460463
7.015837732703529,0.03465569670186517
7.0186162823006395,-0.03357505516976353
7.02139483189775,0.004558216100783916
7.02417338149486,0.009217365757225711
7.02695193109197,-0.06128162018828371
7.029730480689081,-0.037763035506366054
7.0325090302861915,0.09976921840230386
7.035287579883302,0.0250275899467137
7.038066129480412,-0.0839457877759979
7.040844679077522,0.011142334298183558
7.043623228674632,-0.05448316521931696
7.0464017782717425,-0.007346417506272265
7.049180327868853,-0.011600686991951627
7.051958877465963,0.15289901203756545
7.054737427063074,0.02705682920369961
7.057515976660184,0.08564114107129614
7.0602945262572945,0.10914995423177572
7.063073075854405,0.1594085132279601
7.065851625451515,0.0594333457603431
7.068630175048625,0.09427201289898085
7.071408724645735,0.09647689780688058
7.0741872742428455,0.1576108041953848
7.076965823839956,0.14812211436889303
7.079744373437066,0.2992510101018364
7.082522923034177,0.3075375101479877
7.085301472631287,0.2161450435333615
7.0880800222283975,0.14180930429344665
7.090858571825508,0.20532444883696288
7.093637121422618,0.03155385061728026
7.096415671019728,0.06464533657772065
7.099194220616838,0.20109596215678005
7.101972770213949,0.11202583610772948
7.104751319811059,0.058490045678424266
7.10752986940817,0.09573479533518418
7.11030841900528,0.05775783113437636
7.11308696860239,0.04820877128689554
7.1158655181995005,0.2853193571936225
7.118644067796611,0.39495663289769956
7.121422617393721,0.6767987423560576
7.124201166990831,1.037521169149882
7.126979716587941,1.2618382497612501
7.129758266185052,1.410548494644142
7.132536815782162,1.3071722363355143
7.135315365379273,1.0138024386277107
7.138093914976383,0.6098721181734557
7.140872464573493,0.4778941904787175
7.1436510141706036,0.20336131483756553
7.146429563767714,0.12176457346394433
7.149208113364824,0.006799039267783032
7.151986662961934,-0.05326225108022305
7.154765212559044,0.014636374107923514
7.157543762156155,-0.06350976159176998
7.160322311753266,-0.02288213345138974
7.163100861350376,-0.05334087705508272
7.165879410947486,0.07047599569573544
7.168657960544596,0.002838069279929773
7.171436510141707,0.0013676686798841085
7.174215059738817,0.03162054141310747
7.176993609335927,-0.009387754298264703
7.179772158933037,0.0498483599332608
7.182550708530147,-0.014569294737259788
7.1853292581272585,0.0012823638686213982
7.188107807724369,0.022021876118982875
7.190886357321479,-0.025430771008327437
7.193664906918589,-0.023707022049532265
7.196443456515699,0.03840463653802512
7.19922200611281,-0.016705986699406348
7.20200055570992,0.043940375102926796
7.20477910530703,-0.0637015813480378
7.20755765490414,-0.0686462183046726
7.2103362045012505,-0.023771644640583133
7.213114754098362,-0.034966047597443796
7.215893303695472,-0.07468000680853455
7.218671853292582,-0.022996217262158034
7.221450402889692,0.09548381253405533
7.224228952486802,0.00510749685219367
7.227007502083913,0.12392023759884352
7.229786051681023,-0.021454504038096275
7.232564601278133,0.02538085520966161
7.235343150875243,-0.011385831696735762
7.238121700472354,0.05344006863636364
7.240900250069465,-0.0011669623755765496
7.243678799666575,0.018314898335801105
7.246457349263685,0.08183740814265258
7.249235898860795,0.07170700404480436
7.252014448457905,0.13157656796493
7.254792998055016,0.18018978992995516
7.257571547652126,0.1774181142123427
7.260350097249236,0.11762457676592336
7.263128646846347,0.23813023329167232
7.265907196443457,0.2503890031213182
7.268685746040568,0.23925015103964192
7.271464295637678,0.31781468509892974
7.274242845234788,0.23345471385448657
7.277021394831898,0.3434859296437096
7.2797999444290085,0.3218101162762964
7.282578494026119,0.29720567985557717
7.285357043623229,0.28134114306538194
7.288135593220339,0.26377194745917715
7.29091414281745,0.2751580883943818
7.29369269241456,0.2558885989138468
7.296471242011671,0.20300550238495926
7.299249791608781,0.15959470184758548
7.302028341205891,0.06255790887658194
7.304806890803001,0.1372694973104952
7.3075854404001115,0.091957372184627
7.310363989997222,0.14618597798748645
7.313142539594332,0.08842057805336427
7.315921089191443,0.07642183373801936
7.318699638788553,0.09912250767198053
7.321478188385663,0.05059769813149306
7.324256737982774,0.008366825141676002
7.327035287579884,0.04193956475913148
7.329813837176994,-0.0013883423509099286
7.332592386774104,-0.01229825104780531
7.3353709363712145,0.08489739284299262
7.338149485968325,0.012331353351286357
7.340928035565436,-0.006138483059298211
7.343706585162546,0.02081625620729382
7.346485134759656,-0.007589160108512186
7.3492636843567665,0.06147167398177005
7.352042233953877,-0.04976757467181758
7.354820783550987,-0.12606924097602323
7.357599333148097,0.06857545032026435
7.360377882745207,-0.012185040425417813
7.3631564323423175,-0.019910593698499617
7.365934981939428,-0.012476502068388306
7.368713531536539,-0.050716278915428
7.371492081133649,-0.028960965019098835
7.374270630730759,-0.024911318282653288
7.3770491803278695,0.027005651931498557
7.37982772992498,-0.026304670714653946
7.38260627952209,0.021133116193909143
7.3853848291192,-0.016839504636140975
7.38816337871631,0.03980018253684512
7.390941928313421,-0.04029121561954139
7.393720477910532,0.007929385562223742
7.396499027507642,0.02763607689586827
7.399277577104752,0.015438268869677686
7.402056126701862,-0.011733646119845826
7.4048346762989725,0.010245452355835336
7.407613225896083,0.006154779549971737
7.410391775493193,-0.06442696512036047
7.413170325090303,0.0685194845331304
7.415948874687413,0.036457155276561494
7.4187274242845245,0.07600396473107877
7.421505973881635,-0.02988875842603282
7.424284523478745,0.0015558410436778704
7.427063073075855,-0.004516510757286638
7.429841622672965,0.036502317631649926
7.4326201722700755,0.06503941592169703
7.435398721867186,0.0006537275579118053
7.438177271464296,0.05329893479865036
7.440955821061406,0.018514473618371684
7.443734370658516,0.023909039421314573
7.4465129202556275,0.009394457261454875
7.449291469852738,-0.0007969725752596561
7.452070019449848,0.04503476862315179
7.454848569046958,0.06580056590092419
7.457627118644068,0.023305972670644676
7.460405668241179,0.012967690397493781
7.463184217838289,-0.014511770364740134
7.465962767435399,0.07646905675234862
7.468741317032509,-0.07030286103440066
7.47151986662962,-0.1427768672370707
7.4742984162267305,0.02564956498626317
7.477076965823841,0.04519437618531435
7.479855515420951,0.042141071049955466
7.482634065018061,0.06635750742188103
7.485412614615171,-0.04061102909344347
7.488191164212282,0.029925362576055093
7.490969713809392,0.018844043700585244
7.493748263406502,0.007206133375685599
7.496526813003613,0.018259066160744325
7.499305362600723,-0.07773722789159787
7.5020839121978335,0.04544981642351969
7.504862461794944,-0.03483428981901159
7.507641011392054,-0.03324891284597968
7.510419560989164,0.014139901555534146
7.513198110586274,0.050691493241599474
7.515976660183385,-0.010735079961461367
7.518755209780495,-0.046580893792081496
7.521533759377605,-0.008338678739760807
7.524312308974716,-0.002235245207884471
7.527090858571826,-0.06916605917965965
7.529869408168937,-0.051365665159982955
7.532647957766047,0.03570411330594843
7.535426507363157,0.03648887473896362
7.538205056960267,-0.02421057882777547
7.540983606557377,-0.006545257673159292
7.543762156154488,-0.0116257108033026
7.546540705751598,0.03461726020322067
7.549319255348709,0.004507120363327864
7.552097804945819,0.10686959599094742
7.554876354542929,0.08318668395998055
7.55765490414004,0.05535872507310244
7.56043345373715,0.022185264687278557
7.56321200333426,0.10470446482502002
7.56599055293137,0.10246178753671724
7.5687691025284805,0.1440418838718817
7.571547652125591,0.22744641144038108
7.574326201722702,0.15166268544875688
7.577104751319812,0.19718171184486838
7.579883300916922,0.20267818601205262
7.582661850514032,0.14462910585854663
7.585440400111143,0.10693995088459611
7.588218949708253,0.09491121283442952
7.590997499305363,0.1096000231661183
7.593776048902473,0.12581463253800887
7.5965545984995835,0.07880427505856785
7.599333148096694,0.15486889421220618
7.602111697693805,0.03676325029516114
7.604890247290915,0.01820458773546754
7.607668796888025,0.02296097901388265
7.610447346485135,0.034090613056627195
7.613225896082246,0.19560043434768976
7.616004445679356,0.17680509552481716
7.618782995276466,0.40844761394043616
7.621561544873576,0.7054528699554525
7.6243400944706865,1.0253891732315128
7.627118644067798,1.3629976488563573
7.629897193664908,1.3934802167727411
7.632675743262018,1.3323632680930666
7.635454292859128,1.0055077094565175
7.6382328424562385,0.6678414617027743
7.641011392053349,0.5159531326471094
7.643789941650459,0.28324980041305636
7.646568491247569,0.1287327833291741
7.649347040844679,0.08824670984167285
7.6521255904417895,0.008507974841354104
7.654904140038901,-0.09288952497766842
7.657682689636011,-0.009070443241077938
7.660461239233121,0.04753757480374237
7.663239788830231,0.09466909549411295
7.6660183384273415,-0.04288117017407397
7.668796888024452,-0.11143942892450943
7.671575437621562,0.083378068435159
7.674353987218672,-0.055159561914626544
7.677132536815782,-0.012740043275317785
7.679911086412893,0.014687174940059581
7.682689636010004,-0.015282855187139895
7.685468185607114,0.09607729475047558
7.688246735204224,0.002488439758716005
7.691025284801334,0.03675395753361094
7.6938038343984445,-0.07484968457511139
7.696582383995555,0.026349780940339445
7.699360933592665,0.046968347020312204
7.702139483189775,0.040077087025314345
7.704918032786886,0.018121925906938702
7.7076965823839965,0.036700168523648026
7.710475131981107,-0.04600835138246809
7.713253681578217,0.026233835366016763
7.716032231175327,-0.026962043462143728
7.718810780772437,0.03769266203670593
7.7215893303695475,-0.09049602745046838
7.724367879966658,-0.08162792834892833
7.727146429563768,-0.07263957498476528
7.729924979160878,0.060902882186405084
7.732703528757989,0.03538538144938473
7.7354820783550995,0.018278657017876246
7.73826062795221,-0.04128302001899309
7.74103917754932,0.07805721224757482
7.74381772714643,0.18236404500799697
7.74659627674354,0.1449841586884121
7.749374826340651,0.1108416462949435
7.752153375937761,0.19012891917946673
7.754931925534871,0.07701088502808158
7.757710475131982,0.24009288728560574
7.760489024729092,0.22997889008816955
7.7632675743262025,0.18286594693967176
7.766046123923313,0.29009330234355046
7.768824673520423,0.223315576946377
7.771603223117533,0.2639293518717513
7.774381772714643,0.2434733241117397
7.777160322311754,0.27924873517755566
7.779938871908864,0.27112532844816045
7.782717421505975,0.33963208307120435
7.785495971103085,0.20831179233818972
7.788274520700195,0.21864687264105
7.7910530702973055,0.24075617448183761
7.793831619894416,0.17348168077895093
7.796610169491526,0.16171172403750347
7.799388719088636,0.1955562059126045
7.802167268685746,0.13690244492180048
7.804945818282857,0.18492238705326966
7.807724367879967,0.1458097468830018
7.810502917477078,0.12965534065955356
7.813281467074188,0.10476613884965286
7.816060016671298,0.023939109977432226
7.818838566268409,0.032820073296846955
7.821617115865519,0.1368848052367449
7.824395665462629,-0.009947968257828118
7.827174215059739,0.019139813183190177
7.829952764656849,0.09638143341932982
7.83273131425396,0.026277931348523482
7.835509863851071,-0.045952524308369117
7.838288413448181,0.07681350619400847
7.841066963045291,0.009426836272739967
7.843845512642401,-0.01931306614896018
7.846624062239512,-0.02642695092970498
7.849402611836622,0.04957182340482829
7.852181161433732,-0.007383912440848203
7.854959711030842,0.015389946926862068
7.857738260627952,0.027936548422817408
7.8605168102250635,0.024273040176000224
7.863295359822174,0.010305643026249528
7.866073909419284,0.07986277963621949
7.868852459016394,0.027970569662643156
7.871631008613504,0.05169870000172839
7.874409558210615,0.012681105219979439
7.877188107807725,-0.0275125136142871
7.879966657404835,0.024546670618266046
7.882745207001945,-0.08905648284695077
7.8855237565990555,0.055650653811877275
7.888302306196167,-0.08804960604983128
7.891080855793277,0.029753393845018804
7.893859405390387,-0.012204822237865232
7.896637954987497,0.02329510237573368
7.899416504584607,0.010759516024755594
7.902195054181718,-0.024066030624351187
7.904973603778828,0.03963359075601551
7.907752153375938,-0.036525337318030045
7.910530702973048,-0.03468030946426204
7.913309252570159,0.007405340609815374
7.91608780216727,-0.055361683579007157
7.91886635176438,0.0076568478935112715
7.92164490136149,-0.0943342718048309
7.9244234509586,0.013065784321413716
7.9272020005557104,0.10836980833156032
7.929980550152821,0.043438105214975126
7.932759099749931,-0.017675078064886274
7.935537649347041,0.008230256443692767
7.938316198944152,0.050371334431715334
7.941094748541262,-0.010100747732251109
7.943873298138373,-0.047828210514471545
7.946651847735483,-0.06900498944736129
7.949430397332593,-0.0010468386259807015
7.952208946929703,0.016257670829942155
7.9549874965268135,0.008462074419569804
7.957766046123924,-0.10044086157094598
7.960544595721034,-0.01973454301570524
7.963323145318144,-0.10847244596938306
7.966101694915255,-0.00542492228286859
7.968880244512365,0.04930062039549881
7.971658794109476,-0.047709486884185144
7.974437343706586,-0.01831190457491927
7.977215893303696,0.019728590330382913
7.979994442900806,0.013189938258627791
7.9827729924979165,-0.06958449437306775
7.985551542095027,-0.016376944183843518
7.988330091692137,0.07769513952630329
7.991108641289248,0.015340468608228228
7.993887190886358,0.0024349383172046855
7.9966657404834685,-0.09676599719885025
7.999444290080579,-0.06325326412424336
8.002222839677689,0.04570669866744417
8.005001389274799,-0.0409945164312464
8.00777993887191,0.02163789738564309
8.01055848846902,-0.046677316809149216
8.01333703806613,-0.061748683572575215
8.01611558766324,-0.038425274043335934
8.01889413726035,0.04082057379104031
8.02167268685746,-0.058241887532395335
8.02445123645457,0.034152516963427124
8.02722978605168,-0.017480098049665643
8.030008335648793,-0.015379268039569337
8.032786885245903,-0.034934887666792536
8.035565434843013,0.009307051456360967
8.038343984440123,-0.0815889067900196
8.041122534037234,0.13412090441406135
8.043901083634344,-0.04427280897401138
8.046679633231454,0.01248412166605649
8.049458182828564,0.02692139285615306
8.052236732425675,0.12212710740988622
8.055015282022785,0.03648427560229372
8.057793831619895,0.08039189882677966
8.060572381217005,0.0643252971320404
8.063350930814115,0.13958762385854434
8.066129480411226,0.19976034448364927
8.068908030008336,0.2084666080720522
8.071686579605446,0.17775134965887063
8.074465129202556,0.21346152511490024
8.077243678799666,0.2210209067360994
8.080022228396777,0.31917045612265954
8.082800777993889,0.10892059708295397
8.085579327590999,0.1303363841964718
8.088357877188109,0.16581773891376356
8.09113642678522,0.15702757057798472
8.09391497638233,0.1696979391282137
8.09669352597944,0.055615125971532106
8.09947207557655,0.008075536148005671
8.10225062517366,0.057204811797957784
8.10502917477077,0.030308559091214462
8.10780772436788,0.08160243928942224
8.11058627396499,0.14413766705738942
8.113364823562101,0.12239801276014303
8.116143373159211,0.2653528852414581
8.118921922756321,0.4021845414528503
8.121700472353432,0.6630911995209856
8.124479021950542,0.9498660107303296
8.127257571547652,1.222136698473481
8.130036121144762,1.324917872719667
8.132814670741872,1.3379814842311237
8.135593220338984,1.0363762811013582
8.138371769936095,0.6648326536956667
8.141150319533205,0.40547418904789156
8.143928869130315,0.1596344339141643
8.146707418727425,0.06753752907973792
8.149485968324536,-0.03373751816180534
8.152264517921646,0.016163916515848965
8.155043067518756,0.04861847859375066
8.157821617115866,0.012486691355377862
8.160600166712976,0.014982826548826343
8.163378716310087,0.017588848284828817
8.166157265907197,-0.046492652886153264
8.168935815504307,0.03555135834583973
8.171714365101417,-0.006232008743258259
8.174492914698527,-0.0820145667231053
8.177271464295638,0.06379074564786386
8.180050013892748,-0.006583652506241475
8.182828563489858,-0.020049995587019538
8.18560711308697,-0.05103806015351569
8.18838566268408,-0.05843341902213065
8.19116421228119,0.07948784631288701
8.1939427618783,-0.01654676717831013
8.196721311475411,-0.025268643239441297
8.199499861072521,-0.029045946661929715
8.202278410669631,-0.05571268792387007
8.205056960266742,0.03640414490066914
8.207835509863852,-0.00656261561591566
8.210614059460962,-0.00845999397123153
8.213392609058072,-0.07328273812721917
8.216171158655182,-0.036127798248902804
8.218949708252293,-0.02061629486440914
8.221728257849403,0.01402079781338451
8.224506807446513,0.00421354937922843
8.227285357043623,0.004051515484812431
8.230063906640734,0.08965825324584839
8.232842456237844,0.023411346061532872
8.235621005834954,0.07338761413882985
8.238399555432066,0.0886785954015263
8.241178105029176,-0.015382480794665254
8.243956654626286,-0.013542805398581506
8.246735204223397,0.09017542878395046
8.249513753820507,0.1653023845496657
8.252292303417617,0.15393822652091094
8.255070853014727,0.18402873442254541
8.257849402611837,0.1998124565833015
8.260627952208948,0.21455889902703562
8.263406501806058,0.22628782109997228
8.266185051403168,0.303302034364989
8.268963601000278,0.21460154758960187
8.271742150597388,0.28608208044605393
8.274520700194499,0.3417128786992633
8.277299249791609,0.28705058294925695
8.28007779938872,0.3497448939972684
8.28285634898583,0.2744125796855471
8.28563489858294,0.2621957227357291
8.28841344818005,0.2831196380608263
8.291191997777162,0.22346486421764633
8.293970547374272,0.19962226256598356
8.296749096971382,0.11318154281540026
8.299527646568492,0.12439087186928993
8.302306196165603,0.21856582544521763
8.305084745762713,0.2271066629040036
8.307863295359823,0.13591687179376602
8.310641844956933,0.06037672834547785
8.313420394554043,0.09095949970878428
8.316198944151154,0.0077452503173112905
8.318977493748264,0.16288834051419424
8.321756043345374,-0.009797583607786244
8.324534592942484,0.09348122934270597
8.327313142539595,-0.0326945197292091
8.330091692136705,0.01479363842723087
8.332870241733815,0.05752994769823139
8.335648791330925,-0.003852818768501954
8.338427340928035,0.11159772767361599
8.341205890525147,-0.02963718157314579
8.343984440122258,-0.025175200811752015
8.346762989719368,-0.004703602476459962
8.349541539316478,0.08500348792340576
8.352320088913588,-0.039426763600720054
8.355098638510698,0.01992833763617499
8.357877188107809,0.058778301823331804
8.360655737704919,-0.008161235988359012
8.363434287302029,0.028749554924915682
8.36621283689914,0.04712238251923733
8.36899138649625,-0.06436351887297397
8.37176993609336,0.025995425162216625
8.37454848569047,-0.036549199470288354
8.37732703528758,-0.01880585100523113
8.38010558488469,0.009970906748153659
8.3828841344818,0.03599340938141877
8.38566268407891,-0.06307177365975715
8.388441233676021,0.08187030553218835
8.391219783273131,0.028168265393886796
8.393998332870243,-0.019658497391388946
8.396776882467353,-0.005134073307805196
8.399555432064464,0.08412078163214765
8.402333981661574,-0.025980244026431017
8.405112531258684,-0.024581857739355846
8.407891080855794,-0.004833687220660028
8.410669630452904,0.0007805859183076791
8.413448180050015,-0.04786885671556533
8.416226729647125,0.04944674525008691
8.419005279244235,-0.006125308361491028
8.421783828841345,-0.0006103967839608229
8.424562378438456,0.05326720485830486
8.427340928035566,0.05486617200410351
8.430119477632676,0.02648369807733125
8.432898027229786,0.03336896458312453
8.435676576826896,0.006263136328936995
8.438455126424007,0.056961958022983546
8.441233676021117,0.0264464533402839
8.444012225618227,-0.07198852423501924
8.446790775215339,-0.016282850805793038
8.44956932481245,-0.05393252577327857
8.45234787440956,-0.09056538405426538
8.45512642400667,0.045637004828194085
8.45790497360378,0.06726917599081583
8.46068352320089,-0.05342984351615472
8.463462072798,0.049796428238521484
8.46624062239511,0.0017684864470824773
8.46901917199222,0.10556933050263229
8.471797721589331,0.0859099255271607
8.474576271186441,-0.02918905408946309
8.477354820783551,0.056525368127113076
8.480133370380662,-0.0846753807261991
8.482911919977772,-0.11345880370870232
8.485690469574882,0.006049839522381745
8.488469019171992,0.009627835882911507
8.491247568769102,-0.006784241205069677
8.494026118366213,-0.06819521886561845
8.496804667963325,0.054144190341371516
8.499583217560435,-0.024774642161379097
8.502361767157545,-0.021361551987803346
8.505140316754655,-0.03283178736000357
8.507918866351766,0.010012092519882311
8.510697415948876,-0.12030911504437641
8.513475965545986,0.025854216414575394
8.516254515143096,-0.0772409215261501
8.519033064740206,-0.030941172792276785
8.521811614337317,0.013939134263060687
8.524590163934427,0.08966120140231791
8.527368713531537,0.06897651879744722
8.530147263128647,-0.030519224304294993
8.532925812725757,-0.08643184721648733
8.535704362322868,0.07984945636995985
8.538482911919978,-0.022853477497541408
8.541261461517088,0.10786990341367299
8.544040011114198,-0.09498005971594416
8.546818560711309,-0.032602485557716755
8.54959711030842,0.01983148993490269
8.55237565990553,0.07001947700860198
8.555154209502641,0.046243807977384685
8.557932759099751,0.08022700200928437
8.560711308696861,0.09854264061224588
8.563489858293972,0.07531816300482017
8.566268407891082,0.13474295315133736
8.569046957488192,0.11548124161112784
8.571825507085302,0.1637811247095258
8.574604056682412,0.24784590390064398
8.577382606279523,0.17965392237323227
