-0.040944
0.023540
-0.005920
-0.052255
0.060713
-0.057865
0.003892
-0.005736
-0.085468
0.027576
-0.020056
0.019789
-0.004885
0.029040
0.020338
0.028113
-0.027718
0.014153
-0.105001
0.042953
-0.008049
0.053871
-0.006734
-0.054962
0.065122
0.028880
-0.016014
-0.018829
0.009119
0.094908
0.045880
0.108275
0.031824
0.007081
0.074840
0.171199
0.084287
0.123525
0.086008
0.240736
0.199197
0.221686
0.325657
0.152477
0.276017
0.335014
0.214641
0.267735
0.314813
0.023692
0.081606
0.095594
0.127640
0.044926
-0.000062
-0.016211
0.044870
0.061968
0.137029
0.149355
0.275910
0.505068
0.775963
1.187325
1.468284
1.446423
1.323763
0.967212
0.664202
0.334483
0.149171
0.020860
-0.097148
0.026234
0.006191
-0.073345
-0.075818
-0.046406
0.008540
0.001507
0.004453
0.163000
0.086604
-0.063670
-0.037142
0.007008
0.013583
0.020160
-0.010998
0.039416
-0.035109
-0.057902
0.090731
0.118894
-0.083379
0.044098
0.058324
0.116996
0.031826
0.074946
0.048982
-0.013106
0.052904
-0.034719
-0.002462
0.007625
0.000547
-0.005432
0.094146
0.020023
-0.026652
0.054010
0.026151
0.077423
0.045649
0.059429
0.134365
0.099377
0.107046
0.129708
0.141182
0.189035
0.196812
0.344769
0.222782
0.353919
0.280082
0.371776
0.312351
0.357598
0.380968
0.335275
0.392720
0.335562
0.275356
0.250662
0.196226
0.195334
0.287517
0.180850
0.154517
0.093766
0.131746
0.090432
0.169171
0.064056
-0.034811
0.016807
-0.018034
0.065269
-0.058467
0.005364
-0.019874
-0.024814
0.008137
-0.051163
-0.046481
0.052157
-0.048172
-0.031287
-0.069221
0.037565
-0.016290
0.017608
-0.034042
-0.121798
0.090618
0.025815
0.063144
0.014384
0.081434
0.037076
-0.003439
-0.030721
-0.011772
0.061961
0.091879
-0.092820
-0.017382
-0.032069
-0.076899
0.025706
-0.018420
0.087570
-0.026244
-0.045243
0.027558
-0.016180
-0.017943
-0.029607
0.026741
0.012718
-0.071262
-0.008322
0.021496
0.019967
0.042908
0.012001
-0.034674
-0.013829
-0.070156
-0.047386
0.034147
0.055488
0.061528
-0.141056
-0.073916
-0.017665
-0.042212
0.051076
-0.010902
0.024866
0.017109
-0.035946
0.070559
0.013784
-0.056213
-0.024776
0.029305
-0.026951
-0.067581
-0.034667
0.080634
-0.058533
-0.011495
-0.081749
0.014368
-0.042866
0.000944
-0.058743
0.009149
-0.060124
-0.003203
-0.007366
-0.026260
0.082241
-0.003674
0.065493
-0.055273
0.042883
0.021027
-0.049731
0.023870
0.023025
-0.033132
-0.001952
0.091995
-0.018452
0.031877
-0.003512
0.096239
-0.001893
0.021717
-0.005074
0.112017
0.028029
0.013843
-0.009975
0.036730
0.007840
-0.147957
0.061931
-0.035849
-0.086074
0.016117
0.031847
0.030555
-0.060631
-0.011327
-0.038391
-0.009077
0.048473
0.016004
0.025084
0.041897
-0.050560
0.006339
-0.006233
0.034330
-0.002593
-0.025778
0.003882
0.006575
0.050742
-0.025089
0.019428
0.068405
-0.022723
-0.001665
-0.049129
-0.005534
0.062649
0.083376
-0.040848
0.025971
0.014063
-0.036493
0.008771
0.024445
-0.008453
-0.031019
0.106117
0.035066
0.003071
-0.028419
0.010969
-0.025495
-0.057925
-0.009867
-0.079010
0.041399
-0.042357
-0.048503
-0.027105
0.013466
-0.050036
0.084342
-0.118454
0.061770
0.136015
0.051956
0.009032
0.093824
0.036127
0.102745
0.153288
0.190542
0.169212
0.158545
0.258962
0.265154
0.280566
0.257259
0.185170
0.204009
0.114365
0.262400
0.176258
0.100299
0.082103
0.047722
-0.005072
0.018599
-0.033345
0.022810
0.048045
0.140066
0.170941
0.254174
0.472513
0.805987
1.178747
1.509582
1.499967
1.342236
0.979457
0.661089
0.422058
0.131438
-0.035573
0.050163
-0.083046
-0.006994
-0.070577
-0.125799
0.023247
-0.039906
0.002320
0.052273
-0.037222
-0.018865
-0.009138
0.076631
0.021649
-0.076843
-0.031467
-0.058819
0.038006
0.005435
-0.117658
0.036445
-0.016469
0.026567
-0.053118
0.030948
0.072854
0.016091
0.078484
0.043924
0.028549
-0.016097
0.095888
0.057521
0.092980
0.077136
-0.013571
-0.008416
0.039122
0.000670
0.009871
0.056221
0.073635
0.083798
0.054310
0.095266
0.093141
-0.003224
0.107831
0.155171
0.211766
0.262332
0.236636
0.271490
0.303171
0.298099
0.274723
0.315897
0.307206
0.432065
0.308288
0.356474
0.234112
0.341590
0.278813
0.238407
0.182202
0.207865
0.175904
0.209280
0.081659
0.062429
0.042537
-0.002804
0.076095
-0.020047
0.024559
0.074367
-0.020698
0.067422
0.000883
0.013967
0.021902
0.019671
0.004303
0.035476
0.113028
0.035682
-0.022194
-0.076030
-0.012801
0.025037
0.044154
-0.002456
-0.059371
0.043007
0.053745
0.045485
-0.050165
0.078390
-0.013437
0.015152
-0.018468
0.038504
0.021389
-0.122993
-0.003660
0.016728
-0.088779
-0.055079
-0.023503
0.010576
0.084513
0.032099
0.084945
0.000473
-0.022393
-0.120744
-0.006139
-0.044249
-0.008370
0.015260
0.053269
0.014023
-0.024397
-0.077347
0.054580
-0.046661
0.051763
-0.012720
-0.100363
-0.033476
-0.059410
-0.034813
-0.040183
0.026024
-0.000608
-0.030708
-0.008474
-0.019717
0.013641
0.030956
-0.029411
0.085081
-0.015792
0.056111
0.001509
0.044754
0.072636
-0.044226
0.010502
0.056092
0.088331
-0.001437
-0.074367
-0.059356
0.066000
0.054450
-0.088042
-0.121057
-0.055060
0.021952
0.004930
-0.038884
-0.041479
0.027957
0.017746
-0.019195
0.086250
-0.029231
0.036763
0.016892
0.019060
0.012117
-0.006953
-0.001215
-0.023731
-0.007802
0.055612
-0.070538
0.027001
0.034169
0.069818
-0.002212
-0.042030
-0.009845
-0.033883
0.073754
0.012338
0.018244
0.017165
-0.018002
0.038494
0.052923
0.062526
-0.037675
-0.020505
-0.026753
-0.018639
0.028234
0.001935
-0.036469
-0.095045
0.064895
-0.019295
0.005721
0.006089
0.010567
-0.003859
-0.052917
-0.017938
0.064350
-0.018099
-0.056875
0.038915
0.034778
0.080891
-0.047711
-0.128624
0.014188
-0.020041
0.044150
-0.022893
-0.062035
0.045051
-0.023568
0.053042
0.004918
0.041439
0.005655
0.072537
0.048774
0.035228
0.011865
-0.052870
0.043838
-0.032017
-0.034996
-0.011678
0.020797
0.021369
-0.033832
-0.040275
0.023374
0.017349
-0.068929
0.055371
0.157727
0.074324
0.033710
-0.017967
0.025799
-0.046679
0.085836
0.233907
0.189865
0.164604
0.273168
0.248939
0.293374
0.282256
0.259198
0.255255
0.136451
0.232236
0.157513
0.064466
0.186376
0.073107
0.054828
0.063439
0.062936
0.125167
0.012626
0.055354
0.081596
0.206079
0.369515
0.530300
0.891213
1.202973
1.449854
1.380216
1.346477
1.008777
0.618783
0.379100
0.113849
0.039031
0.013065
0.007642
-0.070101
-0.051221
-0.030809
0.115683
-0.054407
-0.047745
-0.050724
0.030114
0.047395
-0.054179
-0.032494
0.078376
-0.029721
0.036994
0.054716
0.031097
-0.017189
-0.039299
-0.086361
-0.026939
0.107554
0.047674
0.019525
0.041390
-0.048143
-0.074446
0.066026
0.076733
-0.005938
0.041572
-0.063558
-0.048821
0.004155
-0.035856
-0.023320
0.095333
-0.039131
0.016914
0.019791
0.090687
0.044828
0.032382
0.015905
0.099432
0.115791
0.086020
0.089549
0.186145
0.237090
0.287471
0.271610
0.279217
0.378445
0.352835
0.454079
0.304916
0.398092
0.400652
0.313458
0.132305
0.295078
0.244004
0.138981
0.255435
0.192873
0.221127
0.071606
0.126968
0.064659
0.054189
0.060951
-0.025176
0.050117
-0.000113
0.107600
0.014898
-0.026510
-0.033168
0.091017
0.030359
0.008470
0.031476
0.085367
0.018091
0.078134
0.095097
0.042497
-0.030092
-0.037259
-0.014272
-0.048805
-0.014766
0.015544
-0.075291
-0.041991
0.017324
0.021414
-0.075257
0.100035
0.054740
0.025482
0.055570
0.077091
0.024707
0.021325
-0.023700
0.017884
0.016220
-0.010421
0.127640
0.021452
-0.034281
-0.000692
-0.008802
-0.051973
0.018352
-0.056306
0.010825
0.030764
0.065840
-0.003118
0.108485
-0.030138
-0.044224
-0.089593
0.004514
-0.022654
0.008837
-0.018413
-0.004864
-0.024388
0.077488
-0.052022
-0.056131
-0.025497
-0.072471
-0.022190
0.016781
0.039927
-0.026364
-0.110058
0.003272
-0.102482
0.005303
-0.046664
0.041042
-0.003926
0.026094
-0.045538
-0.018644
-0.060495
-0.001198
0.151641
0.013285
0.001584
0.035759
-0.031213
0.059632
0.026695
-0.102112
-0.001858
-0.055360
-0.025945
0.005865
-0.068044
0.023611
-0.013376
-0.076826
-0.091972
-0.060771
-0.018426
-0.050486
-0.040643
0.040669
-0.065933
-0.022156
-0.008838
-0.006011
-0.025442
-0.095576
-0.008224
-0.119101
0.003877
0.026487
0.009578
-0.057033
-0.057908
0.033791
-0.012780
0.016478
-0.011508
0.002066
0.105594
0.044502
0.011730
0.032953
-0.076779
0.064913
0.053291
0.083297
0.008796
-0.009884
0.111004
0.140429
0.172705
0.329643
0.412234
0.727851
0.980110
1.092231
1.361120
1.649769
1.809874
2.040375
1.928261
2.009419
1.723176
1.571955
1.271404
1.063190
0.785611
0.530009
0.324432
0.278312
0.129671
0.116666
0.063569
0.041387
0.053559
-0.038983
-0.015988
0.072144
-0.000301
-0.001650
-0.043274
0.045641
-0.103370
0.001597
0.032839
-0.001167
0.034396
-0.030137
-0.074193
0.092289
-0.126701
0.079778
-0.046038
0.021951
-0.016234
0.006856
-0.013707
0.013240
0.025667
-0.038445
0.013016
0.007432
-0.001108
0.020001
-0.065303
0.059094
0.063807
-0.015575
-0.062655
0.034562
-0.078026
0.007780
0.049933
-0.001465
-0.012348
0.024010
-0.082521
0.041187
-0.107344
-0.015371
0.047842
-0.041933
-0.051800
0.058284
0.036979
0.013088
-0.057173
-0.018553
-0.063581
0.055496
-0.042190
0.000458
0.005434
-0.005178
-0.027385
-0.071561
0.029166
0.110535
0.013803
-0.047615
-0.069306
-0.020124
-0.131345
0.047445
-0.064178
-0.007834
-0.061686
-0.030131
0.080427
-0.064359
-0.017121
-0.040672
-0.103468
0.026853
0.014725
-0.033963
-0.067203
-0.027260
0.035243
-0.059921
-0.019607
-0.009288
-0.016081
-0.039448
0.003584
-0.059590
-0.105098
-0.043725
-0.086484
-0.102639
-0.184960
-0.121737
-0.123366
-0.101129
-0.186859
-0.210677
-0.337154
-0.332139
-0.424352
-0.422796
-0.457453
-0.426769
-0.433226
-0.505181
-0.524484
-0.458781
-0.527682
-0.463224
-0.341602
-0.462517
-0.433534
-0.504101
-0.405111
-0.373731
-0.305225
-0.324992
-0.322185
-0.222016
-0.152095
-0.198045
-0.141169
-0.085412
-0.147921
-0.150953
-0.089509
0.000489
-0.105411
0.016207
-0.027308
-0.014026
-0.082192
-0.009893
0.044889
-0.067423
0.009977
-0.022440
-0.000731
-0.048446
0.032409
0.033090
0.037694
0.027856
0.023397
-0.063113
-0.022889
-0.027884
0.021177
0.040374
-0.043760
-0.047410
-0.006159
-0.039235
-0.022277
0.015359
-0.071679
0.034595
0.031947
0.012344
0.006669
0.063825
0.061552
-0.001031
0.066946
-0.019857
-0.007393
-0.032512
0.039718
0.039644
-0.014027
-0.012268
0.006115
-0.060337
-0.022806
0.004637
-0.017220
-0.103394
0.024530
0.093336
0.024024
-0.004511
0.050546
-0.038042
0.045207
-0.064661
0.084855
0.021083
0.005856
-0.037755
0.089930
0.021349
0.011820
0.029796
0.092714
-0.017256
-0.023188
0.024900
-0.013555
-0.003917
0.022266
-0.049763
0.140091
-0.038346
-0.020605
0.055949
-0.061293
0.010454
0.045221
0.045134
0.004189
0.045850
0.035296
0.021720
-0.069264
0.006898
0.032637
0.018856
-0.002357
0.050094
-0.001334
-0.004044
0.024816
0.017869
0.013176
0.081985
-0.057224
-0.045923
-0.005838
0.007258
-0.083100
-0.008135
-0.011004
0.009737
0.036307
0.012359
-0.006798
-0.053132
0.011189
0.095724
0.033094
0.094626
-0.081864
-0.017154
0.027677
-0.012727
-0.020478
0.014401
0.001423
0.063729
0.034095
-0.047351
0.019570
-0.030689
0.068102
-0.083115
0.145690
-0.012139
0.082563
-0.020367
-0.029266
0.011269
0.021139
-0.008787
-0.055405
-0.046923
0.044255
-0.037602
0.012116
-0.033685
0.046767
-0.109188
0.060208
0.063416
0.068890
0.069662
-0.001472
0.058297
-0.011583
-0.005745
0.039896
-0.068275
-0.013041
0.085276
0.019313
-0.029388
0.042329
-0.067440
-0.029081
-0.063873
0.071033
0.105918
-0.071368
-0.053430
0.023658
0.005568
-0.084576
0.001533
0.097015
0.051787
0.015858
0.047590
0.000648
0.106230
0.060638
0.055895
0.105314
0.075490
0.260811
0.177395
0.150286
0.207944
0.299851
0.269541
0.288364
0.252384
0.195134
0.185888
0.150437
0.168351
0.163283
0.096988
0.030033
0.036087
-0.015157
0.036254
-0.005825
0.048435
0.059710
0.138119
0.327796
0.520651
0.831418
1.298777
1.436911
1.463561
1.230827
0.902426
0.597184
0.339201
0.102038
0.073051
-0.002489
-0.043342
0.029059
0.042638
-0.034324
0.040451
-0.044336
-0.015028
-0.128136
-0.048235
0.038277
0.034228
0.027988
-0.071081
-0.012695
-0.004715
0.087745
-0.062016
0.006394
-0.085039
-0.037250
0.044779
0.027453
-0.028142
0.020480
-0.033148
0.061916
-0.022450
0.028503
-0.024124
-0.009956
-0.042790
0.024141
0.044181
0.025114
-0.001741
0.057725
0.077430
0.086833
0.077323
0.033483
-0.001857
0.051164
0.107399
0.075061
0.107442
0.199242
0.142534
0.153650
0.327904
0.273789
0.323032
0.254603
0.181006
0.372917
0.285212
0.429434
0.335054
0.323465
0.394131
0.367111
0.263336
0.180444
0.316655
0.267672
0.146462
0.277379
0.181534
0.131140
0.179165
0.076189
-0.011160
0.046888
0.055316
0.011046
0.033131
-0.064034
-0.078568
0.080775
0.070266
-0.052631
-0.018082
0.009988
-0.038007
0.053300
0.012101
0.017534
0.084223
0.007058
0.025811
-0.004449
0.007841
-0.011014
0.006874
0.042540
-0.050083
0.026992
-0.063766
0.042075
0.135734
-0.073404
0.018343
0.046508
-0.065564
0.007361
-0.039994
-0.077522
0.103467
0.014429
-0.007052
0.014369
-0.011191
-0.024787
-0.014625
-0.037174
-0.095895
0.048262
0.030342
-0.041394
-0.019569
0.016023
-0.049898
-0.108404
0.062147
0.033313
-0.043218
-0.007736
-0.032004
0.038855
-0.021072
0.009502
-0.008983
-0.016169
0.013212
-0.037080
-0.066658
0.064536
0.017139
-0.017260
-0.044587
-0.041441
0.042239
-0.003953
-0.043776
-0.066571
-0.120778
0.091213
0.053854
-0.015746
-0.024705
0.091306
-0.081933
0.048421
-0.064462
0.105010
0.020034
0.001779
0.025623
-0.036576
0.074165
0.040951
-0.008171
0.016678
0.065441
0.061078
0.046053
0.028229
0.015799
0.006324
0.010481
-0.003397
-0.088457
-0.119727
-0.023311
-0.030952
0.031501
0.036826
0.048825
-0.011523
0.007299
0.046911
-0.014722
0.053065
0.098204
0.004490
-0.075731
0.138021
-0.067725
0.004905
0.032339
-0.002042
-0.081023
-0.021571
0.012373
-0.005843
-0.056554
-0.029529
0.092247
-0.012674
-0.031964
0.079232
-0.027954
0.101041
0.086692
0.025843
-0.018482
-0.041265
0.041425
-0.029078
-0.029891
-0.077656
0.009466
-0.058534
-0.036588
0.061507
0.013655
-0.058637
0.064142
-0.094657
0.075611
-0.005118
0.055830
0.018864
0.015588
-0.088828
0.007530
-0.001878
0.040707
0.076963
-0.124481
0.055650
-0.074781
0.048084
-0.018282
0.020861
0.030446
0.084296
0.042725
0.066785
0.002327
-0.046029
-0.095600
-0.058453
-0.037817
-0.078694
0.018452
-0.000046
0.043612
-0.008021
0.021695
0.097285
-0.066046
0.159807
0.146248
0.143003
0.281712
0.272265
0.172917
0.332293
0.326638
0.193073
0.261496
0.322444
0.183438
0.202596
0.112254
0.148561
0.120427
-0.029709
0.113719
0.073592
-0.019662
-0.014972
0.041749
0.090215
0.271981
0.279649
0.688979
0.992092
1.321577
1.422199
1.461857
1.245808
0.825393
0.595641
0.243141
0.150591
0.092976
-0.028089
0.105056
0.065448
-0.080164
0.008631
0.068139
0.077015
-0.009620
0.029412
-0.034086
-0.096671
0.068101
-0.025783
0.049716
0.057380
0.010598
-0.034952
0.026425
0.006596
-0.087375
-0.041891
-0.047024
0.025343
-0.038076
-0.017652
0.034945
-0.006377
0.049085
0.025713
-0.097775
-0.124626
-0.013137
0.041659
0.036968
-0.072252
0.014771
-0.001633
0.056136
-0.012842
0.032875
0.002766
0.094716
0.072454
0.078251
0.109200
0.080415
0.108649
0.197777
0.147145
0.181504
0.149610
0.219786
0.266036
0.346572
0.361783
0.362072
0.376857
0.364855
0.386254
0.378603
0.331018
0.349655
0.324544
0.277076
0.206861
0.247152
0.188433
0.121195
0.121308
0.131875
0.128083
0.179299
0.018926
0.128847
0.041255
0.018154
0.055943
-0.002642
-0.002683
0.073655
0.058718
-0.055841
-0.069197
-0.003657
-0.013707
-0.011291
0.039410
-0.041108
0.021001
0.072860
-0.111853
0.024384
0.030012
0.007078
0.019851
-0.043885
-0.002304
-0.076473
-0.010510
0.019864
0.035108
0.021889
0.060278
-0.017926
0.068276
0.052833
0.066745
0.059335
0.026660
-0.012389
0.038011
-0.018525
-0.062376
-0.011971
0.007848
-0.032947
-0.006624
-0.016839
0.033643
-0.032245
0.069614
0.084493
-0.015015
0.016893
0.043517
0.048142
-0.021675
0.064912
-0.006725
0.001874
0.000775
-0.016510
0.083533
0.044574
0.015050
0.054143
0.038263
0.063053
0.029862
-0.105107
-0.011315
-0.031477
0.122369
-0.034607
-0.007603
0.011012
0.050355
-0.010606
-0.028722
0.005023
0.033987
-0.126833
0.047816
-0.006093
-0.057048
-0.022868
0.032669
-0.074253
0.011530
0.047452
-0.010549
-0.000104
-0.045724
-0.055477
0.033656
-0.023691
0.029552
-0.040850
-0.041535
0.033361
-0.056227
0.009346
0.097868
-0.015110
0.033265
0.067273
0.106774
-0.070107
-0.048656
-0.036083
-0.020143
-0.002315
0.036862
0.031723
0.001637
-0.035268
0.011588
0.062120
0.042811
0.043725
-0.084951
-0.001400
-0.039014
0.076601
-0.005160
0.051333
0.007217
-0.013876
-0.094867
0.055490
-0.031028
0.029454
-0.005351
-0.056457
-0.044723
0.051262
0.024941
-0.015719
-0.037848
-0.017009
0.087445
-0.028912
-0.011936
0.012464
-0.010514
0.052568
0.010261
-0.030699
-0.020678
0.055607
0.030766
-0.087468
-0.006524
-0.085209
0.021294
0.029843
-0.022332
-0.020641
-0.025695
0.049972
-0.024051
0.021539
-0.000106
-0.005840
0.044521
-0.030942
0.002010
0.012720
0.017362
0.070029
-0.060228
0.010892
-0.017933
-0.009684
0.017137
0.039973
-0.051309
0.068529
0.044635
0.065629
0.013594
0.137716
0.069282
0.101233
0.159857
0.220134
0.267991
0.193866
0.130591
0.173798
0.290321
0.241398
0.171378
0.283659
0.195928
0.168709
0.139065
0.072195
0.075437
0.093394
0.095832
0.075108
0.037284
0.063728
0.036293
0.189434
0.397395
0.667322
1.012448
1.255657
1.491591
1.429495
1.148716
0.856056
0.583053
0.306792
0.023423
-0.013622
-0.028858
0.022157
0.047344
-0.025690
0.046958
-0.000748
-0.044424
-0.016711
-0.048696
-0.050983
-0.032402
-0.100128
-0.070723
-0.108544
0.040517
-0.076387
-0.015929
0.017959
-0.001699
-0.023418
0.090371
-0.000410
-0.022624
-0.021350
0.029415
-0.008858
-0.021707
0.032625
0.005631
0.047436
0.005619
-0.029733
-0.006525
-0.078617
-0.084342
-0.093504
0.082561
0.009900
-0.043777
0.063075
0.005971
0.019939
0.109618
-0.019863
0.093725
0.113150
0.184341
0.193580
0.145126
0.212227
0.166466
0.268254
0.339177
0.291514
0.283018
0.363033
0.386583
0.289601
0.267973
0.381790
0.343257
0.281310
0.201047
0.302631
0.238461
0.281744
0.181518
0.161897
0.157761
0.012486
0.069885
0.134111
0.012230
0.070938
-0.006126
0.050843
0.022215
-0.002632
-0.018053
0.016103
-0.012301
0.008355
-0.095328
-0.023738
-0.021581
0.036598
-0.063333
0.015485
-0.031544
-0.063683
-0.087027
-0.028167
0.024322
-0.016580
-0.048380
-0.048340
-0.115847
0.027256
-0.017015
0.156912
0.014551
0.095203
0.023067
-0.078454
0.071937
-0.026248
-0.018771
0.014480
0.039155
-0.011739
-0.085414
0.027754
0.033929
0.031033
0.012313
-0.006945
0.073450
-0.006612
-0.023386
-0.033560
0.041225
-0.097299
0.073570
-0.060095
0.005373
-0.006351
-0.066069
0.021327
0.041522
-0.063501
-0.020250
-0.028191
-0.081878
0.006355
0.002323
0.044179
-0.012739
-0.052426
0.032535
-0.050234
0.034441
-0.065668
-0.004266
0.035608
0.017394
-0.067420
-0.086968
0.002401
0.074618
0.021210
0.023359
-0.052554
0.002401
0.104257
0.005092
0.079543
0.007207
0.044837
0.040613
0.031671
0.017050
-0.039384
0.064689
0.033807
-0.005792
-0.022685
0.032780
0.074683
-0.034932
0.072837
-0.027481
-0.043859
-0.052507
0.056949
0.109903
-0.083913
0.017209
-0.042262
-0.005771
-0.013859
-0.015444
-0.023713
-0.009045
-0.004118
-0.058918
-0.063407
-0.031816
-0.018479
0.103323
0.068660
-0.018634
0.030961
-0.091318
0.059340
-0.011627
-0.041887
0.129437
0.035783
0.065828
0.025397
-0.007355
0.079360
0.045499
0.095318
0.108160
0.125091
0.158404
0.363630
0.475816
0.743489
0.913071
1.245337
1.441959
1.743897
1.924489
1.994013
1.965667
1.940545
1.670701
1.403412
1.091211
0.881673
0.708435
0.470592
0.420738
0.281586
0.078838
0.072925
0.088931
-0.069138
0.016833
-0.079013
0.014345
-0.090424
-0.006755
0.061167
0.037751
-0.043117
0.006054
-0.034036
-0.024172
0.022301
-0.048393
0.023233
-0.030545
-0.016754
0.002175
-0.042601
0.011066
0.153998
0.041690
-0.048049
0.002425
-0.082423
0.019234
0.027067
0.075442
-0.021398
0.032679
-0.034390
0.028269
-0.022148
-0.012305
0.038901
0.015826
-0.028821
-0.041312
-0.034019
-0.091657
-0.037291
-0.035253
-0.047777
0.064222
0.046702
0.022610
-0.066481
-0.043183
0.029940
-0.063214
0.058977
-0.075883
-0.002441
0.098220
-0.065245
-0.030281
0.039581
0.054308
0.052825
0.081958
-0.001123
-0.008673
0.030079
-0.025582
0.019666
0.037029
0.053716
-0.061168
-0.015597
0.004700
0.046949
-0.069873
0.014709
0.036787
-0.109799
-0.036503
-0.118586
0.116035
0.008585
-0.004112
0.010065
-0.095040
0.019803
-0.088292
-0.000564
-0.047621
-0.016007
-0.004598
-0.036107
-0.090199
-0.089735
-0.098322
-0.063281
-0.086527
-0.137976
-0.125680
-0.051489
-0.206146
-0.124061
-0.200604
-0.234591
-0.304534
-0.370174
-0.231899
-0.368489
-0.475032
-0.411081
-0.384490
-0.399067
-0.480056
-0.491159
-0.480836
-0.534155
-0.421248
-0.416105
-0.473885
-0.401927
-0.385252
-0.470554
-0.390288
-0.374057
-0.285879
-0.302775
-0.201867
-0.209481
-0.200187
-0.187789
-0.075950
-0.247740
-0.123366
-0.145113
0.035538
0.006736
-0.055444
0.007662
-0.042763
-0.036470
0.015331
0.019743
-0.075461
-0.054566
-0.035993
-0.062432
0.136576
0.046009
-0.021936
0.007380
-0.065289
-0.010405
0.093113
0.026641
0.013349
-0.009239
-0.012286
-0.097620
0.149515
0.039801
-0.008897
-0.024582
0.039373
0.001747
-0.011350
0.017667
-0.046991
0.009333
-0.116639
-0.032092
-0.030290
-0.000653
0.021133
0.012111
0.040515
0.001025
0.002338
0.020974
-0.018000
0.045088
-0.057249
-0.094694
-0.004840
-0.001332
-0.019877
0.045288
-0.088597
-0.074289
0.049081
-0.042817
0.065776
-0.066972
-0.007200
0.051497
0.011955
0.028187
0.004568
0.018208
0.001045
0.011510
0.078313
0.042174
0.043266
-0.081809
-0.039386
0.088444
-0.008580
0.028032
0.096819
0.028418
0.022989
-0.043999
0.031511
-0.075470
-0.017388
-0.021206
0.004264
0.003022
-0.018243
0.033512
-0.019063
-0.014154
0.099867
-0.079734
-0.058084
-0.038988
0.039341
-0.031740
0.093935
-0.098796
-0.074444
0.033628
-0.050456
-0.100195
-0.025409
0.085024
-0.020692
-0.008301
-0.047233
0.017418
-0.012191
0.038792
0.093453
-0.009598
-0.090574
-0.000635
0.049499
0.018785
-0.073097
-0.067952
-0.062503
0.013969
0.005932
0.087640
0.045966
0.052346
-0.019163
-0.000211
-0.014558
-0.012613
0.015473
0.001151
0.037607
-0.003866
-0.014413
0.015787
-0.121927
0.043028
0.004989
0.027026
-0.055396
0.036159
-0.057022
0.005023
0.019521
-0.045954
-0.044851
0.014493
0.010027
-0.122198
0.002535
0.049773
0.107458
0.037126
-0.039472
0.112263
0.000942
-0.075026
-0.001645
-0.002875
-0.036446
-0.022642
-0.055265
0.045086
0.049460
0.006529
-0.009525
-0.012817
0.028470
0.021194
0.031889
0.095326
-0.090879
-0.054803
0.000112
-0.038004
0.047126
0.001304
0.046027
0.083636
0.057034
0.032088
0.046542
0.045361
0.093095
0.162663
0.223218
0.222075
0.258146
0.166629
0.324137
0.225164
0.259195
0.140456
0.210608
0.162241
0.159131
0.098737
0.121492
0.052407
0.060882
0.041961
-0.011919
-0.048642
0.031825
-0.034476
0.093237
0.152775
0.425836
0.647278
1.025241
1.312899
1.532739
1.305703
1.120542
0.831218
0.453080
0.155746
0.047903
-0.018652
-0.060917
-0.048295
-0.016846
-0.045726
0.040370
-0.001196
0.098768
0.022877
-0.070696
-0.037683
-0.039861
0.000383
-0.005150
-0.091634
-0.006568
-0.061061
0.029656
-0.062480
0.040744
-0.049509
-0.019246
-0.021702
0.027193
-0.084194
0.003523
0.004312
-0.005249
-0.048886
-0.078915
-0.000745
-0.030868
0.044897
0.120123
-0.017216
-0.041461
-0.032582
-0.038726
0.040044
0.046044
0.035959
0.064571
0.011644
0.112157
0.066190
0.164965
0.144437
0.100568
0.109747
0.150995
0.278526
0.231075
0.295119
0.340035
0.270436
0.321934
0.308941
0.311611
0.243389
0.357981
0.321039
0.301467
0.272265
0.322428
0.255149
0.246494
0.253079
0.174219
0.111435
0.134091
0.035157
0.032659
0.129061
0.115249
0.152933
0.010522
0.048354
0.035150
0.013837
-0.043516
0.027508
-0.030973
0.025093
0.033940
-0.004243
0.002351
0.084827
-0.029396
0.039046
0.016024
-0.066195
0.111818
0.023893
-0.030662
-0.031344
0.038034
0.014151
0.009143
-0.020720
0.069686
0.039362
-0.053513
0.024120
0.015795
0.067374
0.075258
0.096531
0.048817
-0.057294
0.037032
-0.082610
0.026313
-0.094834
-0.067071
-0.067649
-0.028294
0.056296
-0.001033
-0.132471
0.041132
0.032243
-0.001394
0.026852
0.013089
0.091042
-0.013825
0.032216
0.011176
-0.079361
-0.040931
0.076056
0.008406
0.027274
0.098540
0.060785
0.018658
0.002345
-0.055365
-0.060290
0.009956
0.031502
-0.108495
0.042112
0.016260
0.080628
-0.073777
-0.044129
0.008305
-0.040017
0.015842
-0.079209
0.110068
0.007469
0.075338
-0.008437
-0.098364
-0.061173
0.065959
0.002595
0.034060
-0.058123
0.017155
-0.020375
0.002698
0.036156
0.086301
-0.007105
0.044287
-0.071963
-0.014061
0.014369
-0.036859
-0.042579
0.069115
-0.012453
-0.013399
0.009188
0.016579
-0.003517
0.002519
0.010253
0.014876
0.071845
0.028778
0.138957
-0.036549
0.007769
0.041626
-0.001298
-0.000426
-0.013084
-0.053947
-0.035355
0.084354
-0.073582
-0.010397
0.016892
0.016803
-0.010637
0.002760
0.059153
-0.053088
-0.034700
0.040128
0.009053
0.024792
-0.043734
0.017133
-0.078556
-0.072103
0.063140
0.074354
0.017666
-0.024042
-0.027011
0.041246
0.025288
-0.091315
0.020046
-0.065622
0.035048
-0.003597
-0.019350
0.051945
-0.005274
-0.034208
-0.051154
0.002560
-0.041792
0.003495
-0.049062
-0.029574
-0.056809
-0.057030
0.000011
0.008386
-0.049405
-0.024507
0.000771
-0.020512
-0.064566
-0.009640
0.018722
0.000694
0.044100
-0.008752
0.089516
0.125729
0.059689
-0.008447
0.042023
0.064411
0.144380
0.132955
0.027002
0.214567
0.207242
0.310087
0.335281
0.260526
0.267499
0.260658
0.269542
0.212853
0.269023
0.204560
0.144872
0.133133
0.114278
0.126268
0.051171
-0.031814
0.032039
-0.045038
0.058138
0.138793
0.138575
0.401658
0.698847
0.958202
1.414731
1.462159
1.352074
1.126123
0.811736
0.486533
0.249383
0.147645
-0.011207
0.038394
0.055221
-0.025735
-0.090368
0.073070
0.020848
0.015250
0.033390
-0.020454
-0.006764
0.048027
-0.066438
0.000923
0.011590
-0.021374
0.042436
-0.018987
0.008136
0.006455
-0.078690
0.000123
0.028799
0.002696
0.056139
0.006525
0.041111
0.083345
-0.037864
-0.064527
0.016549
-0.038567
0.007756
0.051803
-0.064086
-0.070860
-0.024377
0.057537
0.051936
-0.013173
0.035550
0.049529
0.070294
0.021156
0.101028
0.114084
0.187230
0.145455
0.116371
0.296131
0.175876
0.245227
0.229337
0.219905
0.311062
0.379792
0.325578
0.326013
0.403530
0.394525
0.261738
0.379535
0.296547
0.281903
0.266142
0.304306
0.185994
0.198220
0.136144
0.161587
0.107495
0.013362
-0.081449
0.055712
0.087567
0.003802
0.048633
0.019311
0.007474
0.060038
-0.016045
-0.116859
0.041214
-0.016494
-0.057497
0.041660
0.031916
0.050057
0.045200
0.007076
0.067907
-0.011158
0.008395
-0.063001
0.006500
0.077326
-0.004735
-0.002522
0.026831
0.033030
0.014357
-0.019226
-0.020553
0.046564
0.071213
-0.018588
0.034579
0.009370
0.044530
0.027862
0.061433
0.042768
-0.004694
-0.004768
0.028507
-0.047695
0.002489
0.010681
0.037353
-0.030695
0.021101
-0.037537
0.049705
0.028272
-0.025177
-0.065031
-0.025061
-0.040294
0.029560
-0.069398
-0.109962
-0.008509
0.041219
0.059346
-0.043789
-0.071664
0.006143
0.071911
-0.023170
0.027340
-0.029589
0.032945
-0.046107
-0.026216
0.041850
0.009834
0.029096
-0.032072
-0.020190
-0.025013
0.028167
0.023066
0.053132
0.105846
-0.039741
-0.047777
0.052115
0.084189
-0.063222
-0.047918
-0.068336
-0.013694
-0.027497
0.008016
-0.007266
0.021459
0.047102
-0.068205
0.043927
0.022523
-0.019517
0.041349
-0.043890
-0.047645
-0.053194
-0.016478
-0.021251
-0.068975
0.011492
-0.067372
0.019372
0.012123
-0.058313
-0.031333
-0.016247
0.006805
-0.013130
0.007399
0.091606
-0.059324
-0.041637
0.046841
-0.066660
0.050048
0.051612
-0.049860
-0.072729
0.041628
-0.022108
-0.031562
-0.007894
0.037728
-0.017929
-0.048406
0.086825
-0.085634
0.030968
-0.036307
-0.043998
0.017825
-0.048668
-0.006060
-0.058403
-0.033798
-0.057532
0.023111
0.124612
0.022139
-0.007453
0.089377
0.014202
-0.017743
0.107938
0.011786
-0.118458
-0.021275
0.071714
0.068428
0.081067
-0.099708
0.040425
0.015088
-0.077538
-0.102202
-0.011283
0.053506
0.037610
0.065355
-0.035237
0.008856
0.074492
0.067878
-0.022698
0.023783
-0.003320
-0.019509
-0.039477
-0.080698
0.029359
0.040642
0.037378
0.024050
0.068314
0.053845
0.258646
0.271393
0.183361
0.252611
0.273283
0.248200
0.263304
0.272593
0.282899
0.150972
0.199698
0.203969
0.201858
0.118699
0.085558
0.021361
0.031476
-0.025154
0.024425
-0.030985
-0.012302
0.124398
0.218171
0.428282
0.832400
1.187563
1.464199
1.419818
1.410802
1.205541
0.647996
0.406591
0.116198
0.157602
0.053130
-0.010495
-0.081575
-0.095157
0.060627
-0.024044
0.043371
0.029491
-0.045723
-0.020858
-0.021605
-0.024216
-0.055732
0.012050
0.008418
-0.049099
-0.014946
-0.011443
0.008644
-0.043944
0.058445
0.010324
0.006455
0.017979
0.001120
-0.098309
0.012484
0.049052
0.029052
-0.025070
0.019260
-0.068678
0.085796
-0.005235
0.043673
0.004346
0.085428
-0.031179
0.092018
-0.012046
0.034209
0.050989
0.101432
0.066651
0.153377
0.061997
0.097333
0.127611
0.134277
0.148392
0.290922
0.204863
0.357526
0.329071
0.241932
0.319649
0.369823
0.412324
0.333329
0.356765
0.257062
0.277452
0.377528
0.168510
0.241156
0.232180
0.226882
0.140729
0.174574
0.169212
0.041915
0.047010
0.032266
0.075791
0.030035
0.005784
0.041355
0.019723
-0.048267
0.017141
0.076945
0.035381
0.025559
0.077702
-0.060259
-0.001072
0.098625
-0.016220
-0.063475
0.040022
0.048810
0.026252
-0.109777
0.055012
0.007212
-0.069251
-0.050105
0.014179
0.062537
0.036444
-0.082724
0.033811
-0.085045
-0.010462
0.002418
-0.014365
-0.038891
-0.057171
0.009067
-0.001062
0.034143
0.047810
-0.002062
0.049519
-0.029697
-0.040774
-0.049582
0.019669
0.014058
0.010848
0.035626
-0.032223
0.060530
0.030373
0.000375
0.008226
0.054570
0.060580
0.066211
0.093070
0.051406
-0.111007
-0.023649
-0.009761
0.012650
0.026188
-0.023838
0.039975
0.016587
-0.018153
0.030150
-0.052781
-0.000526
-0.073725
0.000930
0.044874
-0.052463
-0.043249
-0.006784
0.028200
-0.097829
-0.078219
0.023604
-0.010294
0.022102
-0.013234
0.008085
-0.028258
0.115558
-0.019371
0.058623
-0.039451
0.006304
0.100122
0.050975
-0.003869
-0.070773
0.017006
-0.137285
0.044258
0.047462
0.027434
0.027579
0.019739
-0.092227
0.030902
0.055464
-0.016227
0.003407
0.052837
-0.003283
0.076547
0.049076
-0.001170
0.008274
-0.052025
-0.065741
-0.009866
0.042141
-0.028566
-0.005813
-0.064687
0.008430
0.001228
0.040342
0.065816
-0.029901
-0.076090
0.050791
-0.020834
0.038461
-0.025751
-0.002658
0.007722
0.025362
0.059159
0.198190
0.179610
0.355762
0.534618
0.722696
1.100046
1.194805
1.527066
1.689743
1.971691
1.964562
2.024516
1.789399
1.524157
1.339417
1.094690
0.796490
0.559329
0.393562
0.313762
0.235300
0.061442
0.033824
0.003134
-0.059091
-0.029369
-0.010429
0.017007
-0.015752
-0.120336
-0.028746
0.000143
-0.069265
-0.034795
0.028552
0.008769
-0.007886
0.000753
-0.073424
-0.034858
-0.003257
0.035961
0.121627
-0.012305
-0.037848
-0.006722
-0.077905
-0.013531
0.014819
-0.024876
0.056989
-0.041680
-0.022122
-0.081470
-0.039253
0.054680
-0.009697
0.087296
-0.013942
0.018481
-0.069769
-0.016745
-0.047871
0.129585
-0.023913
0.051059
-0.075792
-0.041551
0.049213
0.060629
-0.030070
-0.034406
0.039000
0.000905
0.000784
-0.014415
0.017818
0.052399
0.002252
-0.058989
-0.011095
0.051087
-0.103239
0.030971
0.028409
-0.079695
0.037318
-0.104481
-0.052971
0.047480
0.027858
0.021750
0.008444
-0.070847
-0.032667
-0.050550
0.012099
0.016325
-0.024553
-0.029680
-0.030533
0.108521
0.060754
-0.037222
-0.011043
-0.008099
0.076260
-0.041288
0.083797
0.005467
-0.023126
0.001477
-0.013982
-0.038555
0.051871
-0.021634
-0.082780
-0.119780
-0.156321
-0.098686
-0.138005
-0.216704
-0.198247
-0.144343
-0.227715
-0.256899
-0.408445
-0.433966
-0.272817
-0.334708
-0.343543
-0.415000
-0.492591
-0.444770
-0.414363
-0.560083
-0.562176
-0.402920
-0.561562
-0.518321
-0.585740
-0.505111
-0.453348
-0.463572
-0.470444
-0.322291
-0.353452
-0.234388
-0.268430
-0.259062
-0.126962
-0.175111
-0.082687
-0.139804
0.001281
-0.045368
-0.060180
-0.047334
-0.087617
-0.077047
-0.011211
-0.028423
-0.080645
-0.069393
-0.062012
-0.001000
-0.038798
-0.011125
0.021869
-0.036317
0.108893
-0.006987
-0.023561
-0.042726
-0.043221
0.079428
0.128910
-0.011622
0.036856
0.099547
-0.044981
-0.121189
0.035028
0.015771
0.015392
-0.020079
-0.016542
0.041988
-0.048250
-0.104152
0.008612
-0.000394
0.000765
-0.085074
0.049258
-0.058696
0.060546
-0.008559
-0.010042
0.018348
-0.016585
0.048643
-0.004280
-0.038967
0.023808
0.030495
0.008865
0.011172
0.006532
-0.087451
0.052881
0.010210
0.091925
0.046272
-0.080957
-0.009248
-0.031438
-0.023366
0.058659
0.012766
-0.023139
-0.012296
-0.002537
-0.024455
0.049879
0.097384
-0.057567
0.016054
0.020871
-0.081912
-0.093261
-0.018660
0.063156
0.076556
-0.007726
-0.007807
0.037973
-0.036875
0.016175
-0.072380
0.012546
0.118888
0.044767
-0.044838
0.019673
-0.082033
-0.017631
-0.019632
-0.011100
0.037149
0.007666
-0.041046
-0.064501
-0.011294
0.026271
0.008530
0.011864
0.034588
-0.076854
-0.028483
0.034182
-0.007967
0.022657
-0.069192
-0.023058
-0.040274
0.034741
0.002349
0.005483
0.069801
0.005621
0.036399
0.023324
0.057444
0.077877
-0.066181
-0.020729
0.054087
0.027487
-0.043273
0.006656
-0.043516
-0.026021
0.001230
-0.063699
0.009762
0.027298
0.036306
-0.050793
0.009098
0.067502
0.044861
-0.090805
-0.076261
0.065231
0.017939
0.013605
0.052540
0.039195
0.073628
-0.074594
0.042990
0.011071
-0.012329
-0.077909
0.028457
-0.023477
0.016481
-0.010101
-0.074470
-0.038741
-0.006255
0.016042
0.058027
0.034347
0.022614
-0.035688
0.003236
0.003452
0.098966
-0.091495
-0.024811
0.080278
0.009158
0.053730
0.020181
0.097906
0.039799
-0.053025
-0.057773
0.088416
0.051741
0.001881
-0.017819
-0.034848
-0.041212
0.037824
-0.078980
0.011044
-0.057658
0.008801
0.008339
0.045794
-0.015362
-0.024401
-0.054709
-0.040862
0.046974
0.017263
0.039572
-0.013700
-0.008944
0.008800
-0.013199
-0.046537
0.020782
-0.034168
-0.045006
-0.025999
-0.089729
-0.093111
0.054591
-0.014322
-0.076939
-0.013939
0.021786
-0.017564
0.022567
-0.022729
0.006395
-0.053469
-0.054844
-0.071898
0.137731
-0.060574
0.084644
0.038125
-0.033234
0.016600
0.025511
0.021987
-0.002418
0.041890
-0.008749
0.053937
-0.019820
0.087226
0.078648
0.112663
0.039118
0.037432
0.015520
0.035727
-0.016921
-0.003696
-0.090621
-0.031981
-0.038270
0.008516
0.046628
0.074417
-0.075825
0.025961
0.004266
-0.132182
0.044579
0.101416
0.016264
-0.032699
-0.031855
0.035797
0.021483
0.042998
-0.009094
-0.038227
-0.008201
0.014737
0.057296
0.065527
-0.018912
0.019168
0.003454
0.009539
0.011524
-0.011435
0.043909
0.038532
-0.014525
0.053949
0.082892
-0.010768
0.045506
-0.019173
-0.007780
-0.033723
-0.077673
-0.053373
-0.012454
0.005150
-0.089029
0.003887
-0.136201
0.028552
